19980102,0,9.70026,9.78777,9.50219,9.52984,605730.394
19980105,0,9.50219,9.52984,9.18439,9.18439,420320.29
19980106,0,8.98172,9.21202,8.86657,9.0416,1271817.543
19980107,0,9.0416,9.2719,9.0416,9.18439,898826.09
19980108,0,9.09687,9.2719,9.0416,9.18439,467649.993
19980109,0,9.21202,9.21202,8.75142,8.75142,717541.099
19980112,0,8.69615,9.0416,8.54875,8.8942,459182.767
19980113,0,8.88036,9.19867,8.88036,9.11102,1078216.999
19980114,0,9.13869,9.13869,8.94033,9.13869,337295.111
19980115,0,9.22635,9.34168,9.17099,9.28632,203114.165
19980116,0,9.11102,9.51697,9.11102,9.40164,502257.442
19980120,0,9.42933,9.71535,9.40164,9.60002,1645721.708
19980121,0,9.60002,9.80299,9.60002,9.80299,1114850.658
19980122,0,9.54466,9.57233,9.34168,9.34168,834566.605
19980123,0,9.36936,9.40164,9.19867,9.19867,469525.551
19980126,0,9.11102,9.28632,9.08334,9.17099,452183.329
19980127,0,9.08334,9.28632,9.05566,9.22635,288955.123
19980128,0,9.25402,9.36936,9.11102,9.22635,230860.662
19980129,0,9.314,9.60002,9.314,9.36936,984354.059999999
19980130,0,9.36936,9.36936,9.17099,9.25402,573141.686
19980202,0,9.28632,9.28632,8.88036,8.99569,1427217.91
19980203,0,8.94033,9.17099,8.94033,9.05566,922358.103
19980204,0,9.05566,9.40164,9.05566,9.34168,1217383.277
19980205,0,9.45701,9.51697,9.40164,9.48468,1102060.562
19980206,0,9.54466,9.68766,9.25402,9.68766,2297117.481
19980209,0,9.68766,9.68766,9.48468,9.6323,1237542.308
19980210,0,9.57233,9.60002,9.40164,9.60002,527619.496
19980211,0,9.65999,9.65999,9.45701,9.45701,294157.657
19980212,0,9.54466,9.54466,9.34168,9.48468,409913.149
19980213,0,9.45701,9.57233,9.34168,9.45701,598504.03
19980217,0,9.57233,9.57233,9.22635,9.25402,719028.925
19980218,0,9.22635,9.51697,9.17099,9.36936,901331.826
19980219,0,9.42933,9.45701,9.17099,9.28632,1004948.013
19980220,0,9.314,9.45701,9.28632,9.34168,757829.791
19980223,0,9.28632,9.314,9.05566,9.19867,1006248.341
19980224,0,9.22635,9.40164,9.17099,9.314,719678.939
19980225,0,9.40164,9.42933,9.22635,9.314,303045.396
19980226,0,9.45701,9.91832,9.40164,9.77532,1041799.234
19980227,0,9.68766,9.91832,9.60002,9.86296,608691.46
19980302,0,9.91832,10.1213,9.86296,10.0613,728782.18
19980303,0,10.0936,10.292,9.97829,10.2089,447631.27
19980304,0,10.2643,10.292,10.1213,10.1767,555365.995
19980305,0,10.0936,10.1213,9.89065,10.1213,388452.725
19980306,0,10.0613,10.1767,9.80299,9.91832,756962.157
19980309,0,9.89065,9.89065,9.51697,9.54466,506809.474
19980310,0,9.54466,9.83068,9.54466,9.80299,645759.859
19980311,0,9.74763,10.0613,9.68766,9.97829,569456.548
19980312,0,10.006,10.1767,9.97829,10.1213,972432.805
19980313,0,10.2089,10.3796,10.2089,10.292,889625.579
19980316,0,10.2089,10.2366,9.77532,9.83068,445897.142
19980317,0,9.68766,9.74763,9.57233,9.71535,596769.42
19980318,0,9.51697,10.1213,9.51697,10.006,515914.129
19980319,0,9.97829,10.1767,9.83068,10.149,614544.418000001
19980320,0,10.0613,10.3796,10.0613,10.352,647710.441
19980323,0,11.0716,11.1315,10.7257,10.9563,1870296.458
19980324,0,10.9009,10.9009,10.5226,10.5549,651612.356
19980325,0,10.5549,10.7257,10.495,10.5827,453484.104
19980326,0,10.6979,10.6979,10.4396,10.5827,252537.606
19980327,0,10.6103,10.6103,10.3796,10.495,494454.587
19980330,0,10.5549,10.6103,10.4073,10.5226,443946.258
19980331,0,10.6702,10.6702,10.352,10.495,836300.968
19980401,0,10.495,10.9009,10.495,10.8409,1139780.27
19980402,0,10.7257,10.9009,10.638,10.7856,1219984.533
19980403,0,10.6702,10.8133,10.5549,10.8133,361356.676
19980406,0,10.8686,10.9286,10.6103,10.6702,500089.687
19980407,0,10.638,10.8409,10.6103,10.8133,632970.065
19980408,0,10.7856,10.9009,10.6103,10.638,455001.66
19980409,0,10.6103,11.1315,10.6103,11.0716,3979261.83900001
19980413,0,11.3165,11.3165,10.7115,10.7115,2129901.062
19980414,0,10.8269,10.8824,10.6237,10.7669,1022949.552
19980415,0,10.7992,11.0856,10.7669,10.9702,830700.686
19980416,0,10.8269,10.8546,10.6514,10.6837,346612.222
19980417,0,10.7669,10.8824,10.6837,10.8546,967526.144
19980420,0,10.8546,10.8546,10.6514,10.8546,1347262.94
19980421,0,10.8546,10.9702,10.7992,10.8546,615718.552
19980422,0,10.8546,10.8546,10.6837,10.6837,721368.632
19980423,0,10.7992,10.7992,10.1618,10.365,944144.606
19980424,0,10.3927,10.5083,10.3373,10.3927,564841.676
19980427,0,10.365,10.365,10.134,10.365,966444.148
19980428,0,10.4205,10.5683,10.3373,10.4805,539944.288
19980429,0,10.6514,10.9702,10.5959,10.6837,1042434.122
19980430,0,10.7115,10.8269,10.5359,10.7669,787184.394
19980501,0,10.7392,10.7992,10.5083,10.6837,730028.954
19980504,0,10.7392,10.8269,10.6514,10.6837,413726.25
19980505,0,10.6837,10.7115,10.4528,10.6837,555532.206
19980506,0,10.5959,10.7669,10.2773,10.305,684348.3
19980507,0,10.2496,10.4805,10.1618,10.305,1003681.86
19980508,0,10.365,10.4528,10.305,10.4205,454644.658
19980511,0,10.4805,10.4805,10.2773,10.3373,398354.868
19980512,0,10.3373,10.3373,9.99093,10.1618,339467.678
19980513,0,10.2773,10.305,9.90312,10.0464,1003032.104
19980514,0,9.99093,9.99093,9.52899,9.64446,3896515.332
19980515,0,9.75994,9.90312,9.67217,9.69989,2071011.874
19980518,0,9.69989,9.81537,9.67217,9.7276,872917.818
19980519,0,9.81537,9.84308,9.52899,9.58442,408746.732
19980520,0,9.58442,9.78765,9.52899,9.67217,425850.128
19980521,0,9.69989,9.75994,9.52899,9.52899,758173.49
19980522,0,9.64446,9.67217,9.5567,9.5567,228620.538
19980526,0,9.67217,9.69989,9.23799,9.23799,410262.428
19980527,0,9.2657,9.41351,9.00704,9.12252,1418490.446
19980528,0,9.06709,9.23799,9.03475,9.21027,412860.414
19980529,0,9.35347,9.41351,9.23799,9.35347,832649.449999999
19980601,0,9.29804,9.29804,9.06709,9.0948,284910.658
19980602,0,9.21027,9.29804,9.00704,9.15023,555532.04
19980603,0,9.21027,9.23799,9.06709,9.15023,355271.454
19980604,0,9.23799,9.35347,9.15023,9.18256,669192.092
19980605,0,9.23799,9.29804,9.06709,9.18256,465902.32
19980608,0,9.18256,9.18256,8.89157,8.97932,542975.184
19980609,0,8.97932,8.97932,8.77609,8.83614,1294653.062
19980610,0,8.77609,8.86385,8.60519,8.6329,621130.834
19980611,0,8.66061,8.8038,8.51742,8.51742,1312622.228
19980612,0,8.51742,8.91928,8.48971,8.77609,1234467.404
19980615,0,8.6329,8.72066,8.45738,8.48971,444036.092
19980616,0,8.57285,8.60519,8.37424,8.40195,1228188.814
19980617,0,8.51742,8.8038,8.48971,8.66061,789132.854
19980618,0,8.74837,8.74837,8.37424,8.51742,631738.523999999
19980619,0,8.51742,8.57285,8.42966,8.42966,277116.684
19980622,0,8.54513,8.91928,8.45738,8.89157,1091146.392
19980623,0,8.91928,9.38118,8.89157,9.21027,1517645.662
19980624,0,9.2657,9.41351,9.18256,9.32575,1321932.754
19980625,0,9.29804,9.35347,9.18256,9.35347,987878.607999999
19980626,0,9.44122,9.52899,9.29804,9.32575,408313.874
19980629,0,9.35347,9.35347,9.15023,9.21027,513098.642
19980630,0,9.23799,9.38118,9.18256,9.35347,626976.782
19980701,0,9.46894,9.5567,9.23799,9.29804,419788.424
19980702,0,9.29804,9.41351,9.23799,9.32575,333622.698
19980706,0,9.32575,9.32575,9.18256,9.23799,396623.56
19980707,0,9.21027,9.21027,9.00704,9.00704,314570.546
19980708,0,9.03475,9.18256,9.00704,9.12252,160424.568
19980709,0,9.12252,9.21027,8.97932,9.00704,319765.904
19980710,0,9.03475,9.03475,8.68833,8.72066,473046.608
19980713,0,8.6744,8.79006,8.32742,8.32742,578210.284
19980714,0,8.29966,8.55874,8.27191,8.38756,2091067.294
19980715,0,8.44308,8.44308,8.23952,8.29966,1062393.79
19980716,0,8.27191,8.32742,8.21176,8.29966,2235889.423
19980717,0,8.29966,8.32742,8.27191,8.29966,608688.023
19980720,0,8.29966,8.32742,7.95268,8.06834,1880317.701
19980721,0,8.12386,8.15625,7.86479,7.86479,603500.266
19980722,0,7.86479,7.89254,7.60571,7.77688,3346486.787
19980723,0,7.74913,7.86479,7.72137,7.77688,1559545.907
19980724,0,7.86479,7.86479,7.63347,7.69361,916707.449000001
19980727,0,7.54557,7.66122,7.40215,7.57795,916706.125
19980728,0,7.60571,7.63347,7.42991,7.49006,1421639.916
19980729,0,7.40215,7.63347,7.40215,7.42991,1828224.455
19980730,0,7.40215,7.72137,7.40215,7.51781,1146909.319
19980731,0,7.51781,7.51781,7.31425,7.34663,1198570.912
19980803,0,7.46229,7.60571,7.34663,7.37439,749403.625
19980804,0,7.40215,7.49006,6.99966,7.25874,1104976.06
19980805,0,7.23098,7.46229,7.05518,7.11532,638301.046
19980806,0,7.11532,7.14308,6.93952,7.11532,560485.074
19980807,0,7.17084,7.31425,6.99966,7.17084,1120755.204
19980810,0,7.19859,7.19859,6.93952,6.93952,636354.738
19980811,0,6.7082,6.82386,6.47688,6.7961,1345771.055
19980812,0,6.73595,6.93952,6.73595,6.91176,539734.908
19980813,0,6.93952,6.99966,6.76834,6.7961,822247.464000001
19980814,0,6.76834,6.93952,6.76834,6.93952,531737.153
19980817,0,6.93952,6.93952,6.82386,6.85161,698390.945
19980818,0,6.76834,7.05518,6.76834,7.02742,537141.04
19980819,0,7.02742,7.31425,6.99966,7.23098,811223.620000001
19980820,0,7.31425,7.34663,7.19859,7.34663,620144.070000001
19980821,0,7.42991,7.46229,7.14308,7.23098,615820.82
19980824,0,7.25874,7.28649,7.05518,7.08293,477915.25
19980825,0,7.17084,7.17084,6.7082,6.93952,1435258.015
19980826,0,6.82386,6.884,6.59254,6.76834,1232504.333
19980827,0,6.76834,6.76834,6.24556,6.50464,1094816.777
19980828,0,6.47688,6.56479,6.19005,6.24556,915842.184000001
19980831,0,6.21781,6.30571,5.95873,5.95873,722599.893
19980901,0,6.01425,6.30571,5.43595,6.24556,1071039.364
19980902,0,6.30571,6.44913,6.12991,6.12991,1143235.885
19980903,0,6.07439,6.19005,5.87083,6.12991,1240936.832
19980904,0,6.19005,6.56479,6.12991,6.50464,1416885.507
19980908,0,6.59254,6.7082,6.47688,6.53702,748538.831
19980909,0,6.56479,6.65268,6.50464,6.59254,582964.94
19980910,0,6.53702,6.73595,6.42136,6.59254,1659842.874
19980911,0,6.7082,7.25874,6.7082,7.11532,1371924.581
19980914,0,7.46229,7.46229,7.19859,7.23098,830029.141000001
19980915,0,7.14308,7.57795,7.14308,7.42991,1301460.035
19980916,0,7.42991,7.74913,7.40215,7.63347,1305134.114
19980917,0,7.51781,7.63347,7.46229,7.63347,421066.909
19980918,0,7.57795,7.63347,7.46229,7.60571,629222.504
19980921,0,7.63347,7.72137,7.51781,7.69361,407232.856
19980922,0,7.74913,7.89254,7.57795,7.57795,1417533.334
19980923,0,7.72137,8.61888,7.72137,8.27191,1917063.852
19980924,0,8.29966,8.35518,8.04059,8.15625,729518.012
19980925,0,8.21176,8.61888,8.15625,8.55874,1215646.19
19980928,0,8.6744,8.6744,8.29966,8.32742,1080983.665
19980929,0,8.32742,8.32742,8.23952,8.27191,440089.052
19980930,0,8.29966,8.29966,7.80927,8.06834,440952.94
19981001,0,8.09611,8.09611,7.57795,7.69361,652566.899
19981002,0,7.51781,7.89254,7.51781,7.80927,519416.781
19981005,0,7.83702,7.86479,7.57795,7.60571,911518.459
19981006,0,7.63347,7.74913,7.51781,7.63347,508609.123
19981007,0,7.57795,7.63347,7.37439,7.46229,467107.558
19981008,0,7.40215,7.54557,7.02742,7.17084,1316158.138
19981009,0,7.28649,7.34663,6.91176,7.34663,868720.039000001
19981012,0,7.51781,7.51781,7.31425,7.31425,1111244.319
19981013,0,7.21228,7.59235,7.18446,7.59235,841831.387999999
19981014,0,7.64798,7.99561,7.55991,7.85193,2632285.866
19981015,0,7.90754,7.9678,7.70823,7.70823,929638.654
19981016,0,7.70823,7.87974,7.64798,7.82411,685201.694999999
19981019,0,7.85193,7.85193,7.32816,7.62017,540221.709
19981020,0,7.70823,7.82411,7.62017,7.64798,1371480.936
19981021,0,7.62017,7.99561,7.59235,7.76386,1599952.232
19981022,0,7.82411,8.11149,7.76386,8.05587,1146675.974
19981023,0,8.11149,8.17175,7.93999,8.05587,898139.470999999
19981026,0,8.17175,8.28763,8.05587,8.11149,925538.965999999
19981027,0,8.1393,8.37106,7.99561,8.05587,805154.228999999
19981028,0,8.11149,8.11149,7.82411,7.9678,422857.213
19981029,0,7.9678,8.25518,7.87974,7.93999,519941.622
19981030,0,7.87974,7.87974,7.64798,7.76386,360291.41
19981102,0,7.67578,8.25518,7.62017,8.05587,697282.658
19981103,0,8.1393,8.1393,7.79166,8.08368,768046.749999999
19981104,0,8.08368,8.17175,7.93999,8.08368,480892.557
19981105,0,8.08368,8.25518,8.05587,8.17175,931148.897999999
19981106,0,8.22737,8.45913,8.22737,8.40351,1222833.853
19981109,0,8.45913,8.57501,8.34325,8.37106,1029311.994
19981110,0,8.17175,8.34325,7.93999,8.05587,599982.376
19981111,0,8.08368,8.11149,7.99561,7.99561,386828.028
19981112,0,7.99561,8.34325,7.99561,8.28763,579486.96
19981113,0,8.31543,8.37106,8.17175,8.25518,650034.281
19981116,0,8.31543,8.31543,7.87974,8.19956,556618.169
19981117,0,8.22737,8.22737,7.99561,8.05587,482402.287
19981118,0,8.05587,8.11149,7.9678,8.05587,427387.477
19981119,0,8.05587,8.08368,7.82411,7.82411,357486.542
19981120,0,7.82411,7.99561,7.73605,7.87974,715189.539999999
19981123,0,7.87974,7.90754,7.59235,7.64798,993067.191999999
19981124,0,7.59235,7.67578,7.41622,7.5321,1478273.29
19981125,0,7.64798,7.79166,7.50429,7.5321,770635.279
19981127,0,7.47647,7.64798,7.47647,7.55991,120169.08
19981130,0,7.59235,7.59235,6.86464,6.9249,1147107.629
19981201,0,6.9249,6.9249,6.48919,6.57726,1606641.587
19981202,0,6.51701,6.57726,6.22962,6.54945,1604483.342
19981203,0,6.43357,6.48919,6.02568,6.28525,1303952.914
19981204,0,6.25744,6.60507,6.22962,6.54945,974512.452999999
19981207,0,6.57726,6.9249,6.57726,6.83683,1875027.169
19981208,0,6.80902,7.01296,6.51701,6.51701,1190688.244
19981209,0,6.51701,6.72095,6.43357,6.60507,1206005.317
19981210,0,6.54945,6.69314,6.48919,6.48919,1344728.49
19981211,0,6.37331,6.63288,6.25744,6.3177,1024998.094
19981214,0,6.3177,6.3177,5.88199,5.97006,1752051.935
19981215,0,6.20182,6.9527,5.93761,6.86464,5276218.292
19981216,0,7.64798,7.67578,7.21228,7.59235,7020290.051
19981217,0,7.47647,7.82411,7.41622,7.70823,2118599.524
19981218,0,7.59235,8.05587,7.59235,7.79166,1911917.214
19981221,0,7.64798,7.64798,7.5321,7.62017,1476979.102
19981222,0,7.59235,7.70823,7.55991,7.67578,1856688.413
19981223,0,7.64798,7.70823,7.59235,7.64798,2056252.015
19981224,0,7.70823,7.90754,7.67578,7.82411,326635.506
19981228,0,7.76386,7.87974,7.67578,7.76386,1333294.687
19981229,0,7.76386,8.08368,7.73605,7.9678,1376227.073
19981230,0,7.93999,7.99561,7.85193,7.90754,1371049.537
19981231,0,7.90754,8.17175,7.79166,7.99561,1100291.202
19990104,0,7.90754,8.17175,7.73605,8.11149,900081.774999999
19990105,0,8.11149,8.22737,8.05587,8.08368,514979.249
19990106,0,8.08368,8.28763,7.99561,8.25518,699439.977
19990107,0,8.1393,8.17175,7.64798,7.93999,1429299.983
19990108,0,7.93999,8.48694,7.90754,8.34325,1691859.028
19990111,0,8.51938,8.54719,7.82411,7.99561,1615054.777
19990112,0,7.9678,8.43131,7.90754,7.99561,1831877.133
19990113,0,7.77733,8.00949,7.68912,7.92128,1333783.051
19990114,0,7.92128,8.09772,7.83769,7.89341,383357.84
19990115,0,7.83769,8.00949,7.72161,7.83769,389818.512
19990119,0,8.00949,8.30201,7.95377,8.09772,949563.243999999
19990120,0,8.24165,8.47381,8.12557,8.15343,815172.935999998
19990121,0,8.18593,8.35773,8.15343,8.21379,824649.276999999
19990122,0,8.09772,8.32987,8.06985,8.32987,1202191.642
19990125,0,8.35773,8.38559,8.12557,8.21379,593342.333999999
19990126,0,8.18593,8.18593,7.98164,7.98164,1888789.488
19990127,0,8.09772,8.12557,7.72161,7.77733,1498972.432
19990128,0,7.77733,7.86556,7.6334,7.77733,1707447.904
19990129,0,7.77733,8.21379,7.68912,8.15343,1422084.157
19990201,0,7.95377,7.95377,7.74948,7.74948,2121819.978
19990202,0,7.72161,7.77733,7.37338,7.37338,1515984.724
19990203,0,7.42909,7.72161,7.37338,7.6334,2085636.05
19990204,0,7.6334,7.83769,7.54517,7.6334,1964599.92
19990205,0,7.66125,7.89341,7.66125,7.89341,755515.912999999
19990208,0,7.89341,8.06985,7.89341,7.95377,438492.142
19990209,0,7.92128,7.95377,7.60554,7.95377,378403.917
19990210,0,7.89341,7.92128,7.68912,7.77733,297209.837
19990211,0,7.77733,8.00949,7.6334,7.74948,1733076.166
19990212,0,7.6334,7.92128,7.6334,7.86556,791266.995999999
19990216,0,7.77733,7.86556,7.42909,7.60554,700596.721
19990217,0,7.54517,7.68912,7.42909,7.6334,609279.733
19990218,0,7.6334,7.66125,7.45696,7.60554,426861.583
19990219,0,7.66125,7.68912,7.54517,7.60554,1316983.707
19990222,0,7.66125,7.89341,7.51732,7.54517,410709.258
19990223,0,7.6334,7.6334,7.51732,7.54517,677121.754999999
19990224,0,7.54517,7.72161,7.54517,7.57304,638139.351
19990225,0,7.66125,7.83769,7.60554,7.72161,869446.073999999
19990226,0,7.77733,7.77733,7.57304,7.68912,628878.537
19990301,0,7.77733,7.77733,7.42909,7.42909,1499186.172
19990302,0,7.51732,7.77733,7.48946,7.54517,847694.458999999
19990303,0,7.57304,7.57304,7.37338,7.42909,1550874.546
19990304,0,7.42909,7.68912,7.34088,7.68912,1357473.575
19990305,0,7.72161,7.77733,7.6334,7.74948,393264.443
19990308,0,7.86556,8.06985,7.66125,7.95377,766068.876999999
19990309,0,7.89341,7.95377,7.28516,7.54517,1210375.643
19990310,0,7.66125,8.03735,7.57304,8.03735,3205989.696
19990311,0,8.35773,8.50167,8.03735,8.06985,2968434.342
19990312,0,8.06985,8.24165,7.95377,8.00949,552637.466
19990315,0,8.03735,8.03735,7.86556,7.95377,610141.372
19990316,0,8.06985,8.12557,7.98164,8.03735,456798.639
19990317,0,8.06985,8.35773,8.06985,8.30201,529162.801
19990318,0,8.35773,8.38559,7.95377,8.09772,737639.868999999
19990319,0,8.06985,8.26951,8.00949,8.12557,832187.105
19990322,0,8.12557,8.15343,7.95377,8.00949,422123.915
19990323,0,7.89341,8.00949,7.86556,7.98164,447106.713
19990324,0,8.00949,8.09772,7.74948,7.89341,1002544.183
19990325,0,7.89341,7.89341,7.54517,7.66125,1987428.14
19990326,0,7.77733,7.98164,7.57304,7.83769,2820476.525
19990329,0,7.92128,8.09772,7.92128,7.98164,941164.098999998
19990330,0,7.98164,7.98164,7.66125,7.72161,1734585.656
19990331,0,7.77733,7.83769,7.68912,7.72161,619833.015
19990401,0,7.68912,7.83769,7.6334,7.8052,666568.173
19990405,0,7.89341,7.89341,7.45696,7.77733,1701848.506
19990406,0,7.74948,7.89341,7.68912,7.74948,1155025.834
19990407,0,7.66125,7.72161,7.45696,7.60554,879137.591999999
19990408,0,7.60554,7.77733,7.48946,7.54517,558668.089
19990409,0,7.42909,7.74948,7.37338,7.60554,558668.013
19990412,0,7.57304,7.92128,7.54517,7.77733,869661.533
19990413,0,7.8516,8.11208,7.79113,8.08417,2391097.536
19990414,0,7.96788,8.08417,7.87951,7.93533,733538.792
19990415,0,7.90741,8.37256,7.90741,8.25627,1139436.922
19990416,0,8.31674,9.01446,8.31674,8.86561,2889221.14599999
19990419,0,8.78189,9.09818,8.69351,8.83771,1428165.57
19990420,0,8.86561,8.86561,8.40047,8.48885,1873190.13
19990421,0,8.54931,8.72142,8.48885,8.72142,775891.37
19990422,0,8.72142,8.80979,8.51675,8.60513,477058.2
19990423,0,8.60513,8.63304,8.40047,8.43303,510811.598
19990426,0,8.46093,8.46093,8.11208,8.1679,560688.096
19990427,0,8.11208,8.57722,8.0237,8.54931,784706.1
19990428,0,8.57722,8.86561,8.57722,8.80979,774601.342
19990429,0,8.83771,9.13074,8.74932,8.9819,1719043.514
19990430,0,8.95398,9.13074,8.83771,8.86561,929392.322000001
19990503,0,8.86561,8.89817,8.74932,8.80979,718919.386000001
19990504,0,8.89817,8.95398,8.83771,8.83771,1004208.924
19990505,0,8.89817,8.89817,8.63304,8.78189,319687.202
19990506,0,8.72142,8.80979,8.48885,8.51675,350860.578
19990507,0,8.37256,8.95398,8.28418,8.80979,6208425.966
19990510,0,8.74932,9.04237,8.6656,8.95398,1062684.78
19990511,0,8.89817,9.07027,8.86561,9.01446,3153016.062
19990512,0,8.89817,9.09818,8.86561,9.04237,756972.704
19990513,0,9.01446,9.13074,8.95398,9.09818,1372914.826
19990514,0,9.07027,9.18656,8.86561,8.92608,1493736.108
19990517,0,8.86561,8.95398,8.69351,8.92608,1418913.412
19990518,0,8.92608,8.92608,8.72142,8.80979,354515.158
19990519,0,8.83771,9.13074,8.74932,9.01446,778256.790000001
19990520,0,9.01446,9.04237,8.83771,8.86561,422881.512
19990521,0,8.86561,9.07027,8.80979,8.9819,634214.642
19990524,0,8.9819,9.01446,8.72142,8.72142,1200493.624
19990525,0,8.72142,8.80979,8.57722,8.6656,471253.648
19990526,0,8.74932,8.80979,8.63304,8.74932,213698.05
19990527,0,8.78189,8.80979,8.72142,8.74932,423741.016
19990528,0,8.74932,8.89817,8.69351,8.83771,566923.930000001
19990601,0,8.83771,8.83771,8.54931,8.72142,772451.996000001
19990602,0,8.74932,9.07027,8.72142,9.01446,655283.462
19990603,0,9.21447,9.71217,9.07027,9.36331,1342599.124
19990604,0,9.18656,9.44703,9.13074,9.33076,740418.856000001
19990607,0,9.33076,9.56332,9.30284,9.50751,478348.364
19990608,0,9.36331,9.76799,9.36331,9.67961,1401506.344
19990609,0,9.74007,9.74007,9.62379,9.6517,753533.174000001
19990610,0,9.6517,9.67961,9.59588,9.6517,653778.676
19990611,0,9.56332,9.79589,9.53542,9.74007,550370.784
19990614,0,9.74007,9.79589,9.67961,9.74007,374724.088
19990615,0,9.71217,9.85636,9.71217,9.74007,897790.064
19990616,0,9.79589,9.79589,9.36331,9.67961,522635.938
19990617,0,9.71217,9.97265,9.56332,9.97265,1061395.392
19990618,0,9.97265,10.0005,9.76799,9.88428,390633.162
19990621,0,9.97265,9.97265,9.76799,9.82846,540909.676
19990622,0,9.76799,9.91218,9.74007,9.79589,549509.624
19990623,0,9.67961,9.85636,9.53542,9.6517,510596.014
19990624,0,9.74007,9.74007,9.39123,9.53542,258200.536
19990625,0,9.53542,9.53542,9.44703,9.44703,327426.62
19990628,0,9.4796,9.4796,8.83771,9.30284,704730.682000001
19990629,0,9.27494,9.41913,9.24702,9.36331,1338730.122
19990630,0,9.39123,9.76799,9.36331,9.44703,1164805.276
19990701,0,9.30284,9.4796,9.30284,9.44703,513391.398
19990702,0,9.4796,9.74007,9.44703,9.59588,344410.784
19990706,0,9.4796,9.59588,9.27494,9.36331,770732.006000001
19990707,0,9.71217,9.71217,9.30284,9.4796,407832.288
19990708,0,9.59588,9.71217,9.41913,9.4796,382678.494
19990709,0,9.50751,9.62379,9.27494,9.30284,618090.238
19990712,0,9.41913,9.4796,9.15865,9.21447,583405
19990713,0,9.14459,9.22844,9.05607,9.11198,460398
19990714,0,9.289,9.31695,8.96757,9.11198,1102506.128
19990715,0,9.08403,9.26105,9.08403,9.14459,690998.712
19990716,0,9.14459,9.31695,9.11198,9.22844,407000.032
19990719,0,9.22844,9.26105,9.02813,9.20048,287218.294
19990720,0,9.54987,9.98773,9.49397,9.52193,2298604.941
19990721,0,9.52193,9.52193,9.17254,9.289,621233.219
19990722,0,9.3449,9.46137,9.20048,9.46137,685631.738
19990723,0,9.54987,10.0763,9.54987,9.98773,908880.32
19990726,0,9.89926,9.95982,9.49397,9.52193,343674.325
19990727,0,9.52193,9.63839,9.26105,9.289,1030808.402
19990728,0,9.31695,9.52193,9.289,9.37751,697867.713
19990729,0,9.40546,10.1043,9.3449,10.0763,1460994.236
19990730,0,9.95982,10.1601,9.81075,9.87131,907163.366
19990802,0,9.95982,9.98773,9.7269,9.98773,415371.679
19990803,0,10.1043,10.2207,9.7828,9.81075,388109.528
19990804,0,9.87131,10.2487,9.84336,10.2207,570787.412
19990805,0,10.2487,11.008,10.2487,10.8309,3060228.246
19990806,0,10.8589,11.6462,10.8309,11.6462,5667093.19899999
19990809,0,11.6462,11.7347,11.4412,11.5297,2898587.9
19990810,0,11.4738,11.4738,10.3931,10.4257,6110798.25
19990811,0,10.4816,11.1245,10.4816,10.8309,25701198.869
19990812,0,11.036,11.0638,10.8309,10.9474,6160597.361
19990813,0,11.036,11.036,10.803,10.9194,1995717.549
19990816,0,10.8916,10.9474,10.775,10.803,2589688.118
19990817,0,11.036,11.036,10.775,10.803,1495767.664
19990818,0,10.9194,10.9474,10.775,10.803,1158747.901
19990819,0,10.803,11.1804,10.803,11.0638,2017397.79
19990820,0,11.1524,11.1524,10.9754,11.036,1198675.676
19990823,0,11.1245,11.1245,10.9194,11.036,1528612.228
19990824,0,10.9754,11.1524,10.9474,10.9474,682626.649
19990825,0,10.9754,11.036,10.9474,10.9754,1873788.131
19990826,0,10.9474,11.008,10.803,10.803,2339392.271
19990827,0,10.9194,10.9194,10.775,10.803,1257063.272
19990830,0,10.775,10.9194,10.775,10.9194,607924.2
19990831,0,10.8589,11.2689,10.8589,11.1524,1488039.193
19990901,0,11.1804,11.2689,11.1524,11.1804,1216706.614
19990902,0,11.0918,11.0918,10.803,10.8916,1367185.374
19990903,0,10.9474,10.9754,10.8309,10.9194,1014494.717
19990907,0,10.8589,11.3853,10.8589,11.2082,1438238.691
19990908,0,11.0638,11.6462,11.036,11.2082,2193635.853
19990909,0,11.4133,11.7626,11.3853,11.7626,1862626.601
19990910,0,11.8232,11.8232,11.2689,11.4738,1362892.563
19990913,0,11.5297,11.5297,11.2409,11.3574,839330.926
19990914,0,11.3853,11.4133,10.9474,10.9754,1094349.402
19990915,0,10.9754,11.036,10.6586,10.7425,1423640.942
19990916,0,10.7145,10.8309,10.6586,10.8309,643772.844
19990917,0,10.7145,11.036,10.6865,10.8916,785878.741
19990920,0,10.9474,11.5297,10.8916,11.2968,2557703.337
19990921,0,11.1804,11.2082,10.6865,10.7145,1904056.748
19990922,0,10.7425,10.8916,10.4816,10.5701,2343899.522
19990923,0,10.775,10.803,10.3651,10.3651,851136.915
19990924,0,10.3931,10.3931,9.46137,9.7269,2179897.912
19990927,0,10.1043,10.1601,9.92721,10.1321,1586570.443
19990928,0,10.2487,10.2766,9.37751,9.46137,2183762.192
19990929,0,9.57782,9.89926,9.57782,9.84336,2878836.349
19990930,0,9.84336,10.1928,9.84336,9.89926,1218209.058
19991001,0,9.84336,10.0437,9.81075,9.89926,779655.104
19991004,0,9.7828,9.98773,9.66634,9.89926,884409.997
19991005,0,9.87131,9.89926,9.43341,9.66634,1352159.403
19991006,0,9.75484,9.75484,9.57782,9.61043,836754.147
19991007,0,9.7269,10.0437,9.49397,10.0157,938290.32
19991008,0,9.7828,9.98773,9.49397,9.49397,1803593.684
19991011,0,9.54987,9.84336,9.40546,9.7828,683415
19991012,0,9.89926,10.2766,9.89926,10.1321,1124776
19991013,0,10.0296,10.2628,9.67968,9.76832,1175370.858
19991014,0,9.79631,10.0296,9.53507,9.88495,792941.586
19991015,0,9.88495,9.88495,9.1852,9.30182,1753731.667
19991018,0,9.27384,9.50709,9.24118,9.32982,1131640.357
19991019,0,9.53507,10.1461,9.50709,9.85695,1060256.6
19991020,0,9.97357,10.3794,9.97357,10.3515,1388881.386
19991021,0,10.2907,10.3794,9.8243,10.0015,441166.164
19991022,0,9.91293,10.7293,9.91293,10.468,893479.611
19991025,0,10.44,10.44,9.79631,10.0296,409868.867
19991026,0,10.2068,10.2348,9.85695,9.97357,853607.853999999
19991027,0,9.88495,10.1182,9.79631,9.85695,715769.783
19991028,0,9.85695,10.1461,9.32982,9.53507,1079978.48
19991029,0,9.59105,9.70767,9.30182,9.6517,767646.454
19991101,0,9.67968,9.8243,9.59105,9.79631,423159.408
19991102,0,9.79631,9.79631,8.7467,8.86332,1927369.176
19991103,0,8.95196,9.27384,8.89132,9.15721,3045502.998
19991104,0,9.1852,9.27384,8.63008,8.80734,861967.617
19991105,0,8.86332,8.92397,8.10761,8.5741,5138792.726
19991108,0,8.54145,8.80734,8.54145,8.71871,1793818.264
19991109,0,8.7747,9.06859,8.71871,9.06859,2148380.416
19991110,0,9.06859,9.44643,9.00793,9.24118,1152863.948
19991111,0,9.27384,9.27384,8.92397,9.06859,982012.849
19991112,0,8.97995,9.35781,8.92397,9.1852,1249542.622
19991115,0,9.15721,9.44643,9.15721,9.35781,667322.956
19991116,0,9.27384,9.32982,8.92397,9.00793,907842.057
19991117,0,9.15721,10.1742,9.12456,9.79631,1619110.048
19991118,0,9.44643,9.6237,9.1852,9.50709,1462194.081
19991119,0,9.27384,9.35781,9.06859,9.12456,2359530.932
19991122,0,9.09657,9.30182,8.86332,8.97995,1297774.869
19991123,0,9.04059,9.09657,8.5741,9.00793,4629245.216
19991124,0,9.04059,9.30182,9.04059,9.24118,3146683.676
19991126,0,9.2132,9.27384,9.1852,9.2132,619305.775
19991129,0,9.09657,9.12456,8.7747,8.7747,2267997.644
19991130,0,8.7467,8.86332,8.48547,8.69073,1812254.917
19991201,0,8.7467,8.86332,8.54145,8.7467,1486416.049
19991202,0,8.63008,8.63008,8.3082,8.34086,1442043.415
19991203,0,8.45748,8.48547,7.93034,8.10761,1010952.8
19991206,0,7.93034,8.07495,7.6971,7.72509,1027458.464
19991207,0,7.23061,7.37522,6.76412,7.02535,10204909.2
19991208,0,7.05801,7.46385,6.70814,7.29125,4878342.144
19991209,0,7.49184,7.58048,6.99736,7.37522,2229625.535
19991210,0,7.43587,7.43587,7.02535,7.31924,1972172.211
19991213,0,7.40787,7.93034,7.34723,7.49184,2512589.462
19991214,0,7.55248,7.64112,7.34723,7.37522,1444616.277
19991215,0,7.40787,7.72509,7.40787,7.5245,3253870.538
19991216,0,7.58048,7.90236,7.58048,7.87437,3237790.52
19991217,0,8.01898,8.01898,7.87437,8.01898,2043555.753
19991220,0,8.01898,8.04697,7.75774,7.95834,2057489.706
19991221,0,7.95834,8.01898,7.78573,7.90236,1151577.107
19991222,0,7.87437,7.93034,7.6971,7.81372,1286198.95
19991223,0,7.72509,8.16359,7.6971,7.93034,2260280.714
19991227,0,7.90236,8.01898,7.55248,7.75774,1099271.041
19991228,0,7.93034,7.99098,7.49184,7.95834,1852768.825
19991229,0,8.04697,8.25223,7.93034,8.04697,685758.698
19991230,0,8.25223,8.25223,7.6971,7.99098,949857.931
19991231,0,7.87437,8.19158,7.72509,8.19158,495400.877
20000103,0,8.01898,8.10761,6.99736,7.23061,2064778.539
20000104,0,6.99736,7.29125,6.88074,7.23061,2682796.929
20000105,0,7.11398,7.23061,6.94139,7.02535,1915579.72
20000106,0,7.02535,7.6971,6.96937,7.58048,2110223.656
20000107,0,7.6971,7.81372,7.43587,7.46385,1454048.264
20000110,0,7.40787,7.55248,7.29125,7.49184,1035818.42
20000111,0,7.46385,7.75774,7.46385,7.66911,1485345.149
20000112,0,7.62243,7.73926,7.50559,7.68318,1070296.857
20000113,0,7.71123,7.91686,7.68318,7.82807,2288021.196
20000114,0,7.91686,8.00566,7.73926,7.94489,2290591.652
20000118,0,8.06173,8.3842,7.80002,7.97294,1957645.538
20000119,0,8.08978,8.32345,8.0337,8.0337,864667.690999999
20000120,0,7.97294,8.00566,7.47755,7.71123,2230890.504
20000121,0,7.91686,8.08978,7.5383,7.5383,4072990.73400001
20000124,0,7.47755,7.56635,7.21584,7.42147,2770960.16200001
20000125,0,7.42147,7.56635,7.27192,7.33268,2780802.837
20000126,0,7.33268,7.59439,7.33268,7.42147,2177397.162
20000127,0,7.42147,7.5383,7.12705,7.21584,1276139.55
20000128,0,7.21584,7.33268,7.099,7.15508,1179422.739
20000131,0,7.24388,7.44951,7.01021,7.42147,1452881.167
20000201,0,7.36071,7.56635,7.30464,7.5383,1418218.202
20000202,0,7.59439,7.80002,7.59439,7.77198,2128182.665
20000203,0,7.77198,7.8561,7.5383,7.56635,1780689.37
20000204,0,7.50559,7.73926,7.12705,7.33268,1256239.739
20000207,0,7.44951,7.5383,7.21584,7.30464,1625223
20000208,0,7.33268,7.42147,7.15508,7.24388,1216520
20000209,0,7.30464,7.42147,6.95412,7.03824,1993165.337
20000210,0,7.03824,7.36071,7.03824,7.36071,1925762.965
20000211,0,7.44951,7.44951,7.12705,7.27192,1548099.281
20000214,0,7.30464,7.42147,7.15508,7.36071,1105174.125
20000215,0,7.36071,7.71123,7.33268,7.56635,1335837.853
20000216,0,7.65514,7.73926,7.42147,7.44951,1304811.881
20000217,0,7.50559,7.56635,7.42147,7.50559,2433736.749
20000218,0,7.56635,7.59439,7.33268,7.33268,1412440.763
20000222,0,7.30464,7.38876,7.099,7.21584,687069.572
20000223,0,7.1878,7.36071,6.86533,6.89337,1495676.703
20000224,0,6.98216,6.98216,6.42602,6.5709,2582664.134
20000225,0,6.5709,6.65969,6.39798,6.51482,2833012.72500001
20000228,0,6.5709,6.77653,6.45406,6.63165,1669423.141
20000229,0,6.63165,7.12705,6.60362,7.12705,4572192.07400001
20000301,0,7.24388,7.36071,7.12705,7.30464,3284496.82900001
20000302,0,7.47755,8.35616,7.47755,8.29541,4602573.60600001
20000303,0,8.29541,8.473,7.77198,8.08978,3121020.269
20000306,0,8.00566,8.35616,7.94489,8.15053,1020440.057
20000307,0,8.473,8.85156,8.23932,8.76275,2118339.164
20000308,0,8.70668,9.08522,8.473,8.76275,3585986.31100001
20000309,0,8.87959,8.94035,8.58984,8.73472,1439829.907
20000310,0,8.61788,8.94035,8.41225,8.67396,2550139.069
20000313,0,8.55712,8.85156,8.50104,8.52909,835567.224
20000314,0,8.55712,8.7908,8.473,8.67396,1411584.67
20000315,0,8.76275,8.82351,8.35616,8.55712,1314869.011
20000316,0,8.55712,9.05718,8.52909,8.73472,1869273.91
20000317,0,8.76275,8.87959,8.55712,8.67396,755113.389
20000320,0,8.55712,8.61788,8.29541,8.52909,1284698.789
20000321,0,8.58984,8.82351,8.50104,8.70668,1774269.945
20000322,0,8.94035,9.20206,8.58984,8.87959,4029980.29200001
20000323,0,8.87959,8.90763,8.76275,8.87959,1490754.125
20000324,0,8.85156,8.94035,8.58984,8.64592,1953366.33
20000327,0,8.58984,8.82351,8.52909,8.64592,1567997.875
20000328,0,8.73472,9.29086,8.73472,9.05718,1970698.536
20000329,0,9.05718,10.1087,9.05718,10.1087,2831086.657
20000330,0,10.1367,11.2444,10.048,10.721,5951041.43400001
20000331,0,10.721,11.0995,10.2255,10.2817,3046131.79000001
20000403,0,10.2817,10.9266,10.1648,10.8377,2308776.228
20000404,0,11.1602,11.2444,10.1929,10.6321,4697793.524
20000405,0,10.8098,10.9826,10.2255,10.3704,2125400.905
20000406,0,10.5433,10.9266,10.4873,10.8658,1162091.82
20000407,0,10.8377,11.1276,10.7489,11.0434,1223715.063
20000410,0,11.0107,11.0434,10.3097,10.5153,1839532.094
20000411,0,10.5433,11.1602,10.5433,10.9266,1713288.524
20000412,0,11.1746,11.6705,11.1418,11.3757,3537160.143
20000413,0,11.2307,11.5536,11.1746,11.4928,2054297.313
20000414,0,11.4928,11.4928,10.7066,10.7627,2154950.423
20000417,0,10.9687,10.9687,10.5288,10.6738,1378081
20000418,0,10.6177,11.1137,10.5288,11.1137,1439185
20000419,0,11.0575,11.4647,10.7066,10.9406,2212648.81
20000420,0,11.4647,11.4928,10.8235,11.1418,2074598.455
20000424,0,11.0248,11.0575,10.7908,10.8798,2139136.751
20000425,0,10.9967,11.2027,10.9967,11.0248,1794865.157
20000426,0,11.1137,11.2027,10.9967,11.0856,1508508.201
20000427,0,10.9967,11.3196,10.9078,11.2307,2231881.091
20000428,0,11.2027,11.5817,11.2027,11.5255,2340226.772
20000501,0,11.6986,12.2274,11.6425,12.0497,4569757.911
20000502,0,12.1666,12.8124,12.1385,12.4614,3901519.804
20000503,0,12.5456,12.7235,12.2274,12.2836,3923102.89
20000504,0,12.2836,13.1633,12.2274,12.9574,4288743.169
20000505,0,12.8404,13.3973,12.8124,13.2803,2713775.316
20000508,0,13.1633,13.7763,13.1025,13.6313,3494421.93
20000509,0,13.5423,13.7482,12.9855,13.3645,3420908.572
20000510,0,13.3084,13.4815,13.0136,13.4534,1536928.997
20000511,0,13.5705,13.8044,13.4815,13.6874,2380189.29
20000512,0,13.8044,13.9214,13.5143,13.8324,1988905.442
20000515,0,13.8324,14.0103,13.8044,13.8324,3056551.184
20000516,0,13.8044,13.8044,13.0136,13.1306,2869775.654
20000517,0,13.1633,14.2724,13.1025,14.2162,3742739.948
20000518,0,13.9214,14.4174,13.6874,14.3893,3677562.481
20000519,0,14.3893,14.7403,14.0664,14.5064,4995663.91700001
20000522,0,14.5672,14.9462,14.4174,14.5952,2373137.319
20000523,0,14.7683,14.9181,14.5344,14.5952,4385122.363
20000524,0,14.5952,14.9462,14.3613,14.4501,2403054.415
20000525,0,14.7403,14.7403,13.8934,14.0992,3496770.922
20000526,0,14.2724,14.4782,13.9214,14.0384,3111043.68
20000530,0,14.0384,14.6233,13.9495,14.5672,2939654.77
20000531,0,14.6233,15.2691,14.5952,15.2083,3691023.162
20000601,0,15.386,15.386,14.6841,15.0023,2496228.434
20000602,0,15.0913,15.1802,14.2162,14.3004,3301021.542
20000605,0,14.2724,14.2724,13.8652,14.0992,1852137.368
20000606,0,14.0103,14.7122,14.0103,14.6514,2686208.173
20000607,0,14.6841,15.1521,14.1553,14.6514,2363734.471
20000608,0,14.7403,15.4423,14.7122,15.0631,2088061.698
20000609,0,15.0631,15.0631,14.7683,14.8292,1404435.472
20000612,0,14.9462,15.4142,14.9181,15.2363,1589714.95
20000613,0,15.3533,15.6481,15.2971,15.5592,1536929.465
20000614,0,15.5873,15.8821,15.5311,15.6761,1194368.776
20000615,0,15.62,15.7651,15.2363,15.5873,2521872.958
20000616,0,15.62,16.3219,15.62,16.205,3156560.951
20000619,0,16.1441,16.2892,15.6761,15.6761,2205169.021
20000620,0,15.6761,15.7371,15.386,15.7043,2207946.787
20000621,0,15.7043,15.854,15.2971,15.7043,3428174.424
20000622,0,16.0553,16.0553,14.8573,15.0913,1832476.81
20000623,0,15.2363,15.7043,15.2083,15.4703,682343.762
20000626,0,15.5592,15.7932,14.9743,15.1521,633833.956
20000627,0,15.0913,15.4423,14.8854,15.386,1666645.981
20000628,0,15.386,15.6761,15.1802,15.62,1048411.515
20000629,0,15.6761,16.0553,15.4703,15.854,1243734.207
20000630,0,15.7932,16.088,15.3252,15.6761,1347377.874
20000703,0,15.7043,15.8213,15.3252,15.4142,507323.735
20000705,0,15.386,15.386,13.6874,13.8044,4511843.774
20000706,0,14.2724,14.4501,12.7796,13.3365,6922166.29500001
20000707,0,13.3365,14.0992,13.1914,14.0384,3868181.66
20000710,0,14.9462,14.9743,14.1553,14.2162,2933458.402
20000711,0,14.2724,15.2083,14.2724,15.1194,5417289.40600001
20000712,0,15.6761,15.7043,14.6841,14.8292,3371115.928
20000713,0,14.7005,15.169,14.143,14.9629,3336200.193
20000714,0,14.9629,15.0799,14.5224,14.7286,1445778.213
20000717,0,14.7567,15.1971,14.0821,14.232,2668702.284
20000718,0,14.1149,14.7005,14.1149,14.5506,2179020.409
20000719,0,14.7286,14.7567,14.4054,14.4663,1015651.714
20000720,0,14.4944,14.4944,13.3794,13.5293,2548523.621
20000721,0,13.7027,13.7027,12.6205,13.178,2864021.107
20000724,0,13.178,13.3514,12.6486,12.8547,2165573.375
20000725,0,13.0608,13.3514,12.5034,12.6486,2289807.549
20000726,0,12.6767,13.2061,12.6486,13.0281,2707978.527
20000727,0,13.1452,13.965,13.1452,13.7917,3525966.146
20000728,0,13.8198,14.3772,13.8198,14.0821,1614413.857
20000731,0,14.5224,14.5224,13.6136,13.8198,1242349.221
20000801,0,13.8198,14.7005,13.7917,14.4663,1634265.123
20000802,0,14.4335,15.0191,14.4335,14.9909,2039629.686
20000803,0,15.2252,15.9279,14.7567,14.7567,2550870.393
20000804,0,15.0519,15.5484,14.7848,15.3142,2115409.134
20000807,0,15.4032,15.6936,15.2861,15.4313,1311724.333
20000808,0,15.4313,15.8108,15.3142,15.3704,1857546.674
20000809,0,15.8998,15.8998,15.5203,15.6046,1271166.329
20000810,0,15.8108,16.223,15.6936,15.956,2700082.501
20000811,0,16.1059,16.1341,15.8388,16.045,1481427.302
20000814,0,16.0731,16.8367,16.0731,16.2511,4591996.64
20000815,0,16.3963,16.8648,16.3963,16.6306,1968973.451
20000816,0,16.6587,16.8648,16.4245,16.5744,2333139.587
20000817,0,16.7478,17.6846,16.7478,17.1599,4170622.146
20000818,0,17.0991,17.2161,16.5744,16.893,1589224.586
20000821,0,17.2443,17.3614,16.7758,17.0991,1559340.216
20000822,0,17.2771,17.5675,17.0991,17.1881,1609290.858
20000823,0,17.3333,17.8627,17.2443,17.6846,2247114.416
20000824,0,17.6846,17.8299,17.3333,17.7456,2612134.297
20000825,0,17.7456,17.8299,17.4223,17.7736,1147358.609
20000828,0,17.7736,18.0079,17.6846,17.7736,1119608.276
20000829,0,17.8627,18.5045,17.6846,18.2141,2211253.465
20000830,0,18.2421,18.3311,17.4785,17.8018,2654187.105
20000831,0,17.9188,18.1531,17.8299,17.947,924931.089000002
20000901,0,18.036,18.3593,18.0079,18.036,1931403.578
20000905,0,17.9188,18.0969,17.8018,18.0079,1128359.944
20000906,0,17.9798,18.3873,17.9188,18.3873,2715451.697
20000907,0,18.3873,18.4155,18.0969,18.3593,1306601.406
20000908,0,18.125,18.2421,17.7127,18.1531,1717728.907
20000911,0,18.1531,18.6824,18.036,18.5935,1555498.343
20000912,0,18.6824,18.973,18.4482,18.8839,2457375.098
20000913,0,18.973,18.973,18.1531,18.4482,2195031.044
20000914,0,18.3873,18.6216,17.947,18.5325,990890.577000003
20000915,0,18.5325,18.9167,18.3311,18.4763,2510528.174
20000918,0,18.5045,18.8277,18.4482,18.7668,2144226.214
20000919,0,18.7106,18.8558,18.0641,18.2141,2544467.546
20000920,0,18.2983,18.973,18.1812,18.6497,3416034.307
20000921,0,18.5045,18.5045,17.8627,17.9798,3002770.731
20000922,0,17.8018,18.4155,17.6846,17.8908,2395257.554
20000925,0,17.6566,17.6566,16.8086,17.3942,2508819.764
20000926,0,17.5394,18.5045,17.5394,18.2421,1589652.043
20000927,0,18.3593,18.6497,18.2421,18.4482,1507895.995
20000928,0,18.6824,18.7996,18.2702,18.3873,1841750.577
20000929,0,18.3873,19.1509,18.0969,18.4155,2119678.617
20001002,0,18.4763,18.7387,18.4155,18.5935,1447486.515
20001003,0,18.5935,18.6216,18.3873,18.4763,1075421.215
20001004,0,18.4155,18.4482,17.5957,17.8018,2715877.408
20001005,0,17.7127,17.8018,17.2161,17.2771,1714313.473
20001006,0,17.3333,17.8299,17.3333,17.7736,2462924.37
20001009,0,17.8627,18.0969,17.5675,17.8018,570157.216
20001010,0,17.8627,19.1509,17.8018,19.001,4184283.586
20001011,0,19.3851,20.0879,19.2352,19.8536,5770307.07
20001012,0,19.6757,20.1722,19.5023,19.7366,3233949.707
20001013,0,19.692,19.692,19.2231,19.5186,2471328.38
20001016,0,19.692,19.692,19.1059,19.195,1767393
20001017,0,19.2231,20.0155,19.1669,19.8983,2980109
20001018,0,19.9264,20.2781,19.7811,19.8702,4030226.795
20001019,0,19.8702,20.1608,19.8092,19.8702,3064472.971
20001020,0,19.8702,20.3953,19.8373,20.339,2034948.455
20001023,0,20.3953,20.5735,19.6357,20.0717,1667672.736
20001024,0,20.0437,20.1608,18.3464,18.7262,2124741.902
20001025,0,18.4636,18.4917,16.5553,17.2305,4997471.966
20001026,0,17.2586,17.8166,17.2586,17.7603,2793602.95
20001027,0,17.7603,18.2855,16.8789,17.9338,3394212.563
20001030,0,17.7603,18.14,17.4087,18.051,1556764.745
20001031,0,18.051,18.5199,17.6431,18.3745,1969896.349
20001101,0,20.1328,20.3672,19.2513,19.8702,21126267.804
20001102,0,19.692,19.692,19.195,19.2231,5983271.604
20001103,0,19.2513,19.5466,18.9887,18.9887,1638025.928
20001106,0,19.0168,19.0168,18.4636,18.6652,1818891.332
20001107,0,18.8715,19.0497,18.4917,18.7262,1299116.731
20001108,0,18.8153,19.3122,18.7824,19.195,2281932.337
20001109,0,19.1669,19.2231,18.4917,18.5808,1150244.051
20001110,0,18.7262,18.8153,18.6089,18.6371,917976.564000001
20001113,0,18.7542,18.8433,18.1964,18.2573,1469530.734
20001114,0,18.2855,18.9887,18.2855,18.8715,2033882.224
20001115,0,19.1059,20.6016,19.1059,20.5125,3168132.2
20001116,0,20.5125,21.0986,20.1608,20.8923,3504267.016
20001117,0,20.7188,20.836,20.2218,20.4844,1726539.331
20001120,0,20.5735,20.5735,19.692,19.8092,1579159.306
20001121,0,19.6029,20.6297,19.5748,20.6016,2974467.856
20001122,0,20.6016,20.747,20.1046,20.6016,1688787.879
20001124,0,21.0704,21.3939,20.9814,21.333,1286533.081
20001127,0,21.3612,21.5674,20.9251,21.3612,1572548.096
20001128,0,21.4502,21.7456,21.1877,21.1877,1896099.92
20001129,0,21.0986,21.1267,19.5186,20.1046,2851615.449
20001130,0,20.0717,20.836,19.4013,19.8702,3941927.109
20001201,0,20.0155,20.747,19.9264,20.747,2533394.612
20001204,0,20.9532,21.891,20.9532,21.5674,2522090.664
20001205,0,21.5674,22.3598,21.3612,21.5956,3826754.99
20001206,0,22.1535,22.477,21.8628,22.3879,2774619.81
20001207,0,22.5052,22.9177,20.5735,21.0986,4990222.886
20001208,0,21.5112,21.5674,20.836,21.4221,3557374.084
20001211,0,21.5112,22.3598,21.4502,22.2707,1621816.25
20001212,0,22.2707,22.6833,21.6846,22.5661,1823370.11
20001213,0,22.6505,23.2085,22.5052,22.974,3485069.739
20001214,0,22.3879,22.8005,22.0081,22.1254,3547773.821
20001215,0,22.0363,22.477,21.9472,22.3317,2459812.028
20001218,0,22.3879,23.6492,22.3598,23.2365,3164929.57
20001219,0,23.2365,24.3525,23.2365,23.621,4129829.396
20001220,0,23.621,24.2634,23.2694,23.6492,3111183.543
20001221,0,23.6773,24.615,23.6773,24.1743,3531140.582
20001222,0,24.2352,24.4087,23.9118,24.3805,1118464.898
20001226,0,24.3805,26.1997,24.3805,26.1669,3654205.51999999
20001227,0,26.0215,26.2842,25.5527,26.256,2884675.729
20001228,0,26.1997,26.5795,25.9653,26.4622,2525076.699
20001229,0,26.4622,26.5513,25.2902,25.6418,2472822.478
20010102,0,25.5246,26.0215,24.676,25.112,4282542.965
20010103,0,24.8494,25.262,22.7677,23.1521,5453262.716
20010104,0,22.974,23.1803,21.333,21.7456,7714290.825
20010105,0,22.2145,22.7114,21.7456,22.3879,3291621.47699999
20010108,0,22.5052,23.6492,22.5052,23.0912,3457772.233
20010109,0,23.3256,23.3538,22.2988,22.6505,3849149.323
20010110,0,22.7396,23.621,22.6833,22.8005,2540645.897
20010111,0,23.0912,23.4147,22.2145,22.3879,2340158.558
20010112,0,22.2871,22.2871,21.7615,21.9071,3499346.772
20010116,0,21.466,22.6672,21.3487,22.4935,2416443.028
20010117,0,22.3762,22.3762,20.7903,20.9077,3989114.267
20010118,0,20.5275,20.5275,19.2654,20.3821,7521497.286
20010119,0,20.1757,20.9967,19.7956,20.7341,4868266.59900001
20010122,0,20.7621,21.3487,20.7621,21.1141,1860819.911
20010123,0,21.2595,21.7897,21.2313,21.5833,2906425.381
20010124,0,21.6114,22.0243,21.3487,21.466,3255955.078
20010125,0,21.5833,22.3152,21.4941,22.1698,1401528.923
20010126,0,22.0806,22.4326,21.846,21.9634,2254253.533
20010129,0,21.9914,22.2871,21.2924,21.2924,1859115.23
20010130,0,21.297,21.3909,20.5135,20.8748,2494661.832
20010131,0,20.8795,21.2267,20.4103,20.551,3272152.009
20010201,0,20.7153,20.8701,19.8003,20.2976,2246580.831
20010202,0,20.4103,21.3487,20.4103,21.3064,3685193.53800001
20010205,0,20.7856,21.6537,20.7856,21.2548,1721433.772
20010206,0,21.466,21.9352,21.1047,21.6302,1597262
20010207,0,22.0055,22.4279,21.236,22.2214,2250054
20010208,0,22.0525,22.4044,21.5833,21.6912,1418365.837
20010209,0,21.6349,22.5076,21.5786,22.2824,2077570.906
20010212,0,22.7797,22.8736,21.6772,21.8226,1979318.231
20010213,0,21.5129,22.2121,21.3487,22.1229,1749566.745
20010214,0,22.1463,22.6719,22.0525,22.0853,1806258.852
20010215,0,22.0806,22.0806,21.1141,21.3064,2498925.328
20010216,0,21.7241,22.1463,21.4566,21.6208,2290486.036
20010220,0,21.6067,21.9352,21.466,21.5129,1338656.045
20010221,0,21.7241,22.1698,20.9828,20.9874,2694789.174
20010222,0,21.0906,21.2548,20.6449,20.6965,1639166.801
20010223,0,20.6965,21.0578,20.2226,20.4338,1572245.08
20010226,0,20.5745,20.8795,20.4338,20.7621,2280255.788
20010227,0,20.7575,21.0906,20.7153,20.8185,1346541.91
20010228,0,20.8185,20.8185,20.1757,20.4103,1561162.227
20010301,0,20.293,20.6214,20.1757,20.4853,2264056.837
20010302,0,20.7856,21.222,20.598,21.1141,3212263.683
20010305,0,21.3956,21.8179,21.3487,21.4566,1534947.131
20010306,0,21.7709,22.0055,21.7241,21.7475,2277483.231
20010307,0,22.3105,23.0847,22.1933,22.8877,4223980.966
20010308,0,23.3193,23.6056,22.4279,23.6056,2918573.426
20010309,0,23.4601,23.7885,23.1974,23.6478,3348665.009
20010312,0,23.4132,23.4601,22.2495,22.2495,2495727.67
20010313,0,22.2824,22.3293,21.5692,22.0102,3304760.311
20010314,0,21.4894,21.8413,21.208,21.3252,2139804.838
20010315,0,21.7709,21.8179,20.8795,21.0108,1517043.535
20010316,0,20.8795,21.297,20.7668,21.0155,2319471.195
20010319,0,20.9264,21.5786,20.9264,21.4519,1506173.668
20010320,0,21.5457,22.2824,21.3299,21.9493,2231235.277
20010321,0,21.9587,22.0196,20.598,20.6824,2688607.5
20010322,0,20.6918,20.7153,19.5188,20.0865,2369342.695
20010323,0,20.1475,20.7621,20.0349,20.4103,1756599.656
20010326,0,20.4056,20.7621,20.2695,20.4056,2068406.157
20010327,0,20.4103,20.5604,19.73,19.8801,4398746.58500001
20010328,0,19.9411,20.1475,19.5188,19.6737,1336951.555
20010329,0,19.3546,19.3593,18.4397,18.8009,3181147.78400001
20010330,0,18.8103,19.4015,18.8103,19.3405,2675607.042
20010402,0,19.4625,19.5188,18.5007,18.6085,4215240.19600001
20010403,0,18.6038,18.6273,17.6702,17.7874,2985709.574
20010404,0,18.0642,18.5663,17.7827,18.3599,3780037.17700001
20010405,0,18.3927,18.9652,18.252,18.9417,4315626.174
20010406,0,18.9558,18.9933,18.3693,18.9323,1761288.859
20010409,0,19.2842,19.6971,19.2842,19.6971,1232731.544
20010410,0,19.988,20.2413,19.7159,20.1569,2201398.075
20010411,0,20.5233,20.5233,19.9878,20.0536,2048168.699
20010412,0,20.1428,20.4293,20.0301,20.3636,1913170.686
20010416,0,20.3354,21.0351,20.3354,20.9459,1715572.57
20010417,0,20.9459,21.3216,20.6642,21.3028,2525981.49
20010418,0,21.2841,21.5236,20.852,20.8896,4273067.211
20010419,0,20.7768,20.805,19.6074,20.3166,3644715.852
20010420,0,20.2649,20.7111,20.077,20.5233,1810540.505
20010423,0,20.6642,22.0496,20.6171,22.0308,4481952.325
20010424,0,21.7208,22.3548,21.7208,21.9462,3430293.137
20010425,0,22.3078,22.5379,22.0026,22.3924,2732524.403
20010426,0,22.8245,23.0217,22.5192,22.5426,2153995.139
20010427,0,22.4675,22.5379,21.9556,22.2093,2253858.129
20010430,0,22.1669,22.5426,21.3216,21.7818,2960571.57
20010501,0,21.7161,21.7161,21.1338,21.331,3673245.609
20010502,0,21.1338,21.1385,19.9174,19.9362,4667838.361
20010503,0,19.9597,20.2885,19.3256,19.7671,3061287.451
20010504,0,19.8422,20.6642,19.8422,20.4904,3403466.416
20010507,0,20.852,20.9459,20.4527,20.4951,2948861.089
20010508,0,20.5467,20.758,20.2555,20.6642,1570141.476
20010509,0,20.6642,21.2277,20.6642,21.1901,1752409.469
20010510,0,21.1807,21.3216,20.852,21.0116,2353297.568
20010511,0,20.9459,20.9459,20.7158,20.8472,2261309.846
20010514,0,21.1666,21.3451,20.9694,21.331,1578020.409
20010515,0,21.3451,22.2844,21.3451,22.1434,3078746.501
20010516,0,22.2609,22.7728,22.1669,22.1999,3917902.882
20010517,0,21.8429,22.7305,21.6739,22.5991,2962913.524
20010518,0,22.585,23.2424,22.5662,23.1392,1846949.155
20010521,0,23.1626,23.4162,23.1204,23.3833,1776683.286
20010522,0,23.3646,23.3646,22.8761,23.1767,2108640.228
20010523,0,22.7775,22.9183,21.9321,21.965,4712128.367
20010524,0,21.5001,21.7443,21.1338,21.5987,4782395.988
20010525,0,21.3686,21.6504,21.1807,21.3639,2579852.568
20010529,0,21.5846,21.8382,20.9694,21.2089,1779877.199
20010530,0,21.1901,21.1901,20.4293,21.115,3410277.548
20010531,0,21.0163,21.2653,20.7158,21.0821,2382680.178
20010601,0,21.1572,21.3451,20.5702,21.1385,1491783.658
20010604,0,21.486,21.6363,21.3451,21.425,1159400.617
20010605,0,21.0163,21.3263,20.9835,21.176,2617967.745
20010606,0,20.899,20.9037,19.49,19.6309,5595147.272
20010607,0,19.6121,19.6121,19.1848,19.3303,6342315.60800001
20010608,0,19.5558,19.6544,18.748,19.4149,3808243.829
20010611,0,19.584,19.7953,19.2552,19.706,2904145.79
20010612,0,20.1006,20.3119,19.8282,20.1194,3212892.284
20010613,0,20.2414,20.542,19.4947,19.5558,2287501.115
20010614,0,19.5323,19.5323,19.1378,19.2083,1658294.465
20010615,0,18.8842,19.4665,18.8842,19.166,1274170.008
20010618,0,19.1143,19.1143,18.5226,18.5836,3454781.681
20010619,0,18.7856,18.7856,18.424,18.7104,3383662.112
20010620,0,18.7809,19.011,18.3065,18.3253,2413768.87
20010621,0,18.485,18.5038,16.907,17.3766,3831025.26
20010622,0,17.4236,17.8933,17.0713,17.8604,3713063.053
20010625,0,17.5645,17.9871,17.5645,17.6585,3006989.566
20010626,0,17.6114,17.8933,17.3766,17.8416,2282603.452
20010627,0,17.5927,17.5927,17.0949,17.2828,2438042.213
20010628,0,17.2875,17.2875,16.3951,16.5078,3613625.087
20010629,0,16.86,16.9962,16.5313,16.8365,2993148.674
20010702,0,16.9305,16.954,16.2026,16.3341,2142921.285
20010703,0,16.3716,16.7145,16.3435,16.6158,1693853.783
20010705,0,16.6252,17.2828,16.6252,16.9446,1523297.161
20010706,0,17.1371,17.3719,16.6909,17.2921,1454308.1
20010709,0,17.1888,17.1888,16.5783,16.6299,3420712.248
20010710,0,16.7661,16.907,16.32,16.4374,5422460.946
20010711,0,16.0851,16.0851,15.3102,15.8879,2901803.012
20010712,0,15.8973,16.2026,15.3665,15.6155,2860494.568
20010713,0,15.5638,16.2738,15.4462,16.0293,1781777.142
20010716,0,15.7472,16.1281,15.2065,15.3757,1850046.279
20010717,0,14.8115,15.2346,14.8115,15.0136,4303020.05200001
20010718,0,14.9666,14.9948,14.4823,14.7268,2684149.85000001
20010719,0,14.7644,15.0183,14.5764,14.8068,1813039.991
20010720,0,14.8679,15.2112,14.8349,15.0936,2665010.28300001
20010723,0,15.2817,15.498,15.0466,15.0466,2255188.572
20010724,0,15.103,15.103,14.4823,14.5106,1809637.772
20010725,0,14.7738,15.9305,14.4588,15.9211,3511023.353
20010726,0,15.9869,16.3396,15.8741,16.222,2802396.41600001
20010727,0,16.4571,17.1625,15.9588,17.0919,3274957.558
20010730,0,16.8333,17.3459,16.6406,16.6735,2887720
20010731,0,17.1625,17.1625,16.222,16.617,2432193
20010801,0,16.7863,17.0637,16.175,16.2361,3085039.466
20010802,0,16.3396,16.5982,16.034,16.5277,2070800.404
20010803,0,16.4571,16.4995,16.034,16.1421,1068470.837
20010806,0,16.1139,16.3725,15.8177,15.9446,1375996.437
20010807,0,15.9869,16.208,15.8036,15.813,1145671.64
20010808,0,15.8694,16.0105,15.0983,15.1218,1455749.176
20010809,0,15.1265,15.3381,14.9337,15.15,1845153.902
20010810,0,15.1641,15.4886,15.07,15.2817,920662.878
20010813,0,15.0466,15.6531,15.0466,15.3051,2984651.915
20010814,0,15.7518,15.7518,15.5685,15.7378,1785605.59100001
20010815,0,15.6578,17.0261,15.6578,17.0214,4228366.918
20010816,0,16.9979,17.0026,16.4948,16.9603,3471679.23700001
20010817,0,16.965,16.965,16.222,16.5936,1334312.81
20010820,0,16.5747,16.5794,16.034,16.0621,1348136.277
20010821,0,16.222,16.2644,15.9164,16.0387,881743.97
20010822,0,16.1986,16.7863,15.7518,15.8365,2450422.263
20010823,0,15.9446,15.9446,15.5873,15.6202,3068875.85700001
20010824,0,15.5261,15.6108,15.2346,15.3851,1642263.73
20010827,0,15.3992,15.4744,15.1171,15.3098,2108230.791
20010828,0,15.1735,15.3098,15.0936,15.1077,1464468.286
20010829,0,15.2723,15.4133,14.8115,15.103,2134815.452
20010830,0,15.2346,15.2534,14.5811,14.8443,2963603.789
20010831,0,14.849,15.023,14.6939,14.882,1574207.985
20010904,0,15.2817,15.3051,15.0466,15.2158,1756894.467
20010905,0,15.1641,15.1688,14.6986,14.8867,3209665.83500001
20010906,0,14.9525,15.4697,14.8349,15.3522,1507428.489
20010907,0,15.1876,15.5638,15.0936,15.3051,1581225.348
20010910,0,15.197,15.5544,15.15,15.3992,2168841.666
20010917,0,15.4227,15.6061,14.4353,14.4635,2546337.246
20010918,0,14.092,14.4071,13.4619,13.6265,3237952.09900001
20010919,0,13.6312,13.73,12.7049,13.1751,3818974.30300001
20010920,0,13.1422,13.6265,12.9823,13.0575,2475517.04300001
20010921,0,12.578,13.4385,12.5309,13.3209,2412779.333
20010924,0,14.0591,14.0591,12.7426,12.7755,4597785.84100001
20010925,0,12.7002,12.8366,12.3663,12.5451,2516988.641
20010926,0,12.6908,12.6955,12.3099,12.4463,2510395.665
20010927,0,12.1312,13.0247,12.1312,12.846,3139909.43100001
20010928,0,13.2362,13.8287,13.1375,13.5419,2343234.77
20011001,0,13.4525,13.5183,13.0011,13.2833,2831957.58400001
20011002,0,13.1187,13.6359,13.1187,13.556,1265619.167
20011003,0,13.2598,14.0121,13.1704,13.8522,2215843.602
20011004,0,13.998,14.8585,13.998,14.6328,2565478.47200001
20011005,0,14.8115,14.9196,14.4353,14.7926,2855989.99700001
20011008,0,14.7738,15.3287,14.6234,15.056,2054424.795
20011009,0,15.0513,15.2957,14.7221,15.1453,1789646.629
20011010,0,15.1406,15.9869,15.1406,15.9869,2584406.648
20011011,0,15.9869,16.2925,15.7001,15.9776,1942983.627
20011012,0,15.9869,16.222,15.5638,15.9916,2258804.414
20011015,0,16.0058,16.0058,15.182,15.4455,1933051.316
20011016,0,15.535,16.2364,15.535,16.0435,1764599.014
20011017,0,16.2836,16.5707,15.9587,15.9822,3280028.136
20011018,0,15.6292,15.7469,15.3702,15.568,2201979.214
20011019,0,15.2996,16.1047,15.0925,16.0199,2142713.165
20011022,0,15.7704,16.2364,15.7186,16.1847,1845107.016
20011023,0,16.0952,16.839,15.841,16.1235,3970886
20011024,0,16.147,16.6177,15.874,16.453,6609608
20011025,0,16.4248,17.3709,16.3824,17.3709,7424401.443
20011026,0,16.9943,18.1242,16.9943,17.7241,6872104.81
20011029,0,18.5479,18.5479,17.837,17.8794,6937954.08200001
20011030,0,17.4651,17.4698,16.4718,16.7496,5194386.06000001
20011031,0,16.6602,17.1638,16.0293,16.646,3039351.407
20011101,0,16.5236,16.9943,16.3118,16.9473,2089182.26
20011102,0,16.839,16.8861,16.1941,16.2883,2996653.857
20011105,0,16.0529,16.3023,15.8646,15.9257,1613779.545
20011106,0,15.6762,16.0529,15.488,16.034,2024392.524
20011107,0,15.7704,16.7449,15.7704,16.6036,3575082.378
20011108,0,16.7119,16.9473,16.5943,16.6413,2522101.416
20011109,0,17.0415,17.8888,16.9943,17.2344,2445840.41
20011112,0,17.1357,17.178,16.566,16.9991,1767998.224
20011113,0,16.9991,17.0697,16.6177,16.9803,1180010.97
20011114,0,16.4765,16.5236,16.0011,16.0152,2523163.171
20011115,0,15.535,15.5397,14.3582,14.9702,4861092.23100001
20011116,0,14.9654,15.5256,14.7159,15.4126,2401232.587
20011119,0,15.3138,15.535,14.8336,15.4079,2232779.752
20011120,0,15.7233,16.3824,15.7233,16.2083,2568196.87
20011121,0,16.1941,16.4765,15.8928,16.1329,3137065.74100001
20011123,0,15.9587,16.6177,15.9116,16.5424,1199128.635
20011126,0,16.307,16.3589,15.9587,16.2929,3238816.58300001
20011127,0,16.0529,16.6649,16.0058,16.2741,2406755.142
20011128,0,15.9587,16.7825,15.6762,16.18,8704677.242
20011129,0,16.2883,16.5943,16.1705,16.533,3227132.787
20011130,0,16.5566,16.6036,15.9069,16.4671,6354214.73200001
20011203,0,15.7704,17.0415,15.7233,16.9473,3673647.24
20011204,0,16.9473,17.5593,16.8296,17.5593,4253563.40300001
20011205,0,18.3596,18.6703,18.0818,18.4114,6806463.53200001
20011206,0,18.4114,18.4114,17.9217,18.1242,2742170.691
20011207,0,17.8888,18.1195,17.6629,17.9642,3102652.683
20011210,0,17.4181,17.7711,17.4181,17.564,1836610.806
20011211,0,17.5829,17.5876,16.8956,17.0744,3993980.63500001
20011212,0,16.6649,16.792,16.3118,16.792,2907224.513
20011213,0,16.4765,16.8956,16.1941,16.5754,2222371.368
20011214,0,16.6649,17.1497,16.4671,17.0179,1480165.335
20011217,0,17.2063,17.2344,16.7872,16.825,1856153.676
20011218,0,16.5707,17.3239,16.5519,17.2863,1894177.811
20011219,0,17.2721,17.7617,17.2015,17.7194,1718078.797
20011220,0,17.5593,18.0301,17.4981,17.5593,2168415.971
20011221,0,17.7476,17.8888,17.6769,17.6911,1909047.644
20011224,0,17.9594,18.0253,17.7947,17.8464,753890.114
20011226,0,18.3172,18.4208,18.1289,18.3643,3846983.997
20011227,0,18.2654,18.5667,18.1477,18.3408,1674744.762
20011228,0,18.3455,18.6609,18.2702,18.4725,1486112.747
20011231,0,18.3596,18.6232,18.2654,18.4114,1161317.666
20020102,0,17.983,18.0818,17.4463,17.9217,2352799.039
20020103,0,17.8417,17.8888,17.484,17.5829,2041599.556
20020104,0,17.6535,17.8417,17.4887,17.8088,2227469.131
20020107,0,17.7241,18.0724,17.6205,17.9547,2268467.445
20020108,0,17.7241,17.903,17.2769,17.7146,2157369.909
20020109,0,17.6393,17.7476,17.4322,17.6487,2828627.269
20020110,0,17.6535,17.6535,17.3003,17.4745,2228957.711
20020111,0,17.0415,17.1827,16.7778,16.7778,2015259.091
20020114,0,16.1941,16.5142,16.0529,16.2836,5176541.92900001
20020115,0,16.4013,16.6653,16.3637,16.5474,2802653.474
20020116,0,16.3778,16.4484,15.9725,16.1893,3727111.668
20020117,0,16.3212,16.3212,15.6048,15.831,2584747.95
20020118,0,15.8452,15.9064,15.2797,15.3833,5523831.62
20020122,0,16.0243,16.0243,15.3173,15.3927,1821757.309
20020123,0,15.4587,15.9536,15.3975,15.8357,2485872.07
20020124,0,15.7887,16.2082,15.7416,16.095,1933786.952
20020125,0,16.1186,16.3212,15.9678,16.1563,2238473.25799999
20020128,0,16.3872,16.4344,15.6095,15.6473,2175670.139
20020129,0,15.6331,15.6331,14.8979,15.0581,2963108
20020130,0,14.6999,15.6849,14.3747,15.5153,5159565
20020131,0,15.7509,16.1987,15.6378,15.9772,2429221.626
20020201,0,16.0196,16.1657,15.4446,15.6755,3100551.174
20020204,0,15.6142,15.7887,15.3409,15.553,2447044.748
20020205,0,15.6142,15.6709,15.1712,15.4776,1579238.064
20020206,0,15.5719,15.8357,15.3221,15.3975,1013572.54
20020207,0,15.3409,15.3457,14.9686,14.9827,1232964.195
20020208,0,14.9403,15.176,14.6858,15.1712,2208344.761
20020211,0,15.1242,15.6944,15.0346,15.586,1433047.868
20020212,0,15.388,15.5059,15.1571,15.2514,1375972.186
20020213,0,15.1524,15.388,14.9639,15.3362,1278582.339
20020214,0,15.1854,15.7368,15.1006,15.553,1779322.177
20020215,0,15.5436,15.553,15.2231,15.4116,1578814.103
20020219,0,15.2231,15.619,15.0958,15.4634,1410344.551
20020220,0,15.5059,15.5483,15.1147,15.2844,1846368.82
20020221,0,15.3645,15.8593,15.3645,15.6755,1741341.679
20020222,0,15.7463,16.1421,15.6944,16.0385,1664959.074
20020225,0,15.9348,16.5286,15.9348,16.4484,2061517.823
20020226,0,16.4862,16.4909,16.1421,16.3165,1535953.884
20020227,0,16.3637,16.4484,16.1987,16.26,1458721.155
20020228,0,16.3307,16.8256,16.2694,16.5805,2974091.439
20020301,0,16.7313,16.7313,16.3543,16.6134,1324200.464
20020304,0,16.6134,16.9622,16.6134,16.8256,2685532.683
20020305,0,16.9198,17.0093,16.7548,16.9386,1996167.902
20020306,0,17.2026,17.9567,17.0282,17.8671,3216401.541
20020307,0,18.1923,18.6966,18.1216,18.3761,3395266.281
20020308,0,18.3808,18.5223,18.2018,18.3573,4637781.864
20020311,0,18.6164,18.8379,18.4044,18.6117,1922753.285
20020312,0,18.3808,18.6542,18.3337,18.6353,2528945.474
20020313,0,18.7107,18.937,18.6636,18.772,4150193.288
20020314,0,18.772,18.772,18.2065,18.5316,1705695.796
20020315,0,18.3808,18.6871,18.3667,18.4987,2349867.618
20020318,0,18.6871,18.805,18.4751,18.7909,2185430.542
20020319,0,18.8521,19.2527,18.8474,19.2104,1838093.995
20020320,0,19.1773,19.3187,18.8615,19.0548,1566931.63
20020321,0,18.9086,19.4742,18.8615,19.3988,1538924.067
20020322,0,19.2291,19.3234,18.8521,18.9228,1987892.082
20020325,0,18.6636,19.1773,18.6212,18.7532,1343296.365
20020326,0,18.64,18.9322,18.4091,18.5741,1360058.827
20020327,0,18.6117,19.2763,18.6117,19.1773,1384458.776
20020328,0,19.1726,19.3329,18.9558,19.1208,1736673.598
20020401,0,19.2575,19.5921,19.2575,19.5073,1404191.331
20020402,0,19.7429,20.0257,19.6062,19.8985,2204526.141
20020403,0,19.7476,19.7524,19.2339,19.3281,1648620.432
20020404,0,19.4177,19.7335,18.5505,18.7107,1968371.614
20020405,0,18.8332,18.9464,18.2394,18.4562,1147880.957
20020408,0,18.805,19.3612,18.6871,18.9841,817732.602000001
20020409,0,18.9653,18.9653,18.3384,18.4044,1148517.492
20020410,0,18.3949,18.9935,18.3573,18.904,875869.457000001
20020411,0,18.7861,19.1726,18.5694,18.871,1479302.291
20020412,0,18.4464,18.5785,17.8001,17.9463,1861907.028
20020415,0,18.3048,18.6256,18.3048,18.3708,1443274.584
20020416,0,18.4464,18.6256,18.3048,18.3379,1536327.112
20020417,0,18.5219,19.055,18.4936,18.9181,2072599.588
20020418,0,19.2342,19.371,18.9889,19.2013,1335170.946
20020419,0,19.1824,19.5692,18.9654,19.5126,1588683.03
20020422,0,19.4419,19.6636,19.3664,19.5032,1811247.028
20020423,0,19.5032,19.9655,19.3617,19.6636,1630439.698
20020424,0,19.3428,19.6211,19.3097,19.3475,1651848.384
20020425,0,19.4135,19.9324,19.2013,19.7532,1598645.16
20020426,0,19.7391,19.9089,19.6022,19.8759,1458356
20020429,0,19.8664,19.9844,19.5032,19.857,766048
20020430,0,19.9844,20.2627,19.8146,20.0692,1542262.334
20020501,0,19.4843,20.0929,19.4371,20.0787,2169892.716
20020502,0,19.9324,20.3713,19.824,20.3524,1481851.586
20020503,0,20.4608,20.8053,20.3665,20.6543,1918925.992
20020506,0,20.3806,20.3853,19.857,19.9183,2658473.608
20020507,0,19.9561,20.0599,19.6966,19.989,1485667.412
20020508,0,20.2863,20.5458,20.192,20.5458,1092471.272
20020509,0,20.3806,20.5741,20.1354,20.1589,1050713.934
20020510,0,20.2485,20.3335,20.0929,20.1731,934132.672
20020513,0,20.0268,20.5883,19.9561,20.5883,856341.262
20020514,0,20.758,20.8289,20.5599,20.6118,2023635.758
20020515,0,20.3995,20.5081,20.0268,20.0976,1709715.49
20020516,0,20.1023,20.4892,20.1023,20.4231,1249113.496
20020517,0,20.1683,20.2202,19.8004,19.9938,2056914.992
20020520,0,19.8853,20.2109,19.7768,20.1447,936888.538
20020521,0,19.9561,20.3759,19.9324,20.0645,1428012.512
20020522,0,20.0599,20.2769,19.9277,20.2769,1642310.67
20020523,0,20.4514,20.4514,20.0929,20.3524,967199.756000001
20020524,0,20.0976,20.2344,19.8051,19.8617,1419110.7
20020528,0,19.8853,19.9797,19.5834,19.7296,860580.596000001
20020529,0,19.4466,19.7909,19.371,19.7438,1338987.842
20020530,0,19.6211,19.6966,19.055,19.206,1539082.446
20020531,0,19.3522,19.6871,19.3428,19.4324,1472950.218
20020603,0,19.4088,19.4088,18.7577,18.8993,1459383.576
20020604,0,18.9654,19.0125,18.5738,18.7813,1574481.476
20020605,0,18.5407,18.6917,18.4558,18.6869,1460867.316
20020606,0,18.8238,19.154,18.3048,18.5265,1559007.606
20020607,0,18.5219,18.8426,18.4039,18.7719,1529544.976
20020610,0,18.7295,18.8332,18.1397,18.1633,1246146.378
20020611,0,18.2105,18.3662,17.6773,17.8237,1680675.8
20020612,0,17.9982,18.1303,17.7859,17.8472,1995444.554
20020613,0,17.9274,18.1351,17.668,17.9463,2507341.972
20020614,0,17.8803,18.1444,17.5076,18.1209,2511793.436
20020617,0,18.4086,18.6115,18.3379,18.4936,953421.616000001
20020618,0,18.4983,18.6587,18.4134,18.47,1213503.706
20020619,0,18.6115,18.753,18.2577,18.4228,2010919.48
20020620,0,18.5172,18.7247,18.3615,18.3992,2990624.284
20020621,0,18.5077,18.5879,17.9982,18.286,1803192.164
20020624,0,18.2954,18.5549,18.1869,18.3992,2203807.506
20020625,0,18.6115,18.7672,18.4464,18.4558,1585503.614
20020626,0,18.4228,18.5785,18.2058,18.5313,1996293.868
20020627,0,18.6682,18.7153,18.1633,18.4417,1814214.432
20020628,0,18.5454,18.7106,18.4652,18.6917,1342590.484
20020701,0,18.6822,18.72,18.2341,18.2341,1176409.186
20020702,0,18.2577,18.3945,17.6773,17.767,1206296.824
20020703,0,17.701,18.0549,17.55,17.8472,964019.988
20020705,0,17.7906,18.1586,17.7906,18.1586,575910.89
20020708,0,17.9982,18.0736,17.5878,17.6585,1182769.1
20020709,0,17.6066,17.8425,17.4509,17.4556,1189551.53
20020710,0,17.6444,17.6821,16.899,16.9886,1331780.278
20020711,0,16.7716,16.8801,16.5169,16.7291,1817606.222
20020712,0,16.7857,17.0547,16.3847,16.6111,1154789.292
20020715,0,16.5073,16.6726,15.9452,16.6726,2007152.054
20020716,0,16.4837,16.8426,16.12,16.6111,1794156.469
20020717,0,17.0505,17.2393,16.3562,16.5734,1917380.84
20020718,0,16.5308,16.819,16.427,16.4837,982826.667999999
20020719,0,16.4175,16.4837,16.0113,16.0585,2229039.293
20020722,0,16.035,16.1767,14.8684,14.925,2898725.061
20020723,0,14.8778,15.2273,14.5991,14.6275,2252752.892
20020724,0,14.2402,15.539,14.1788,15.539,2442246.248
20020725,0,15.421,15.6193,14.5472,14.9723,4721677.762
20020726,0,14.925,15.336,14.6936,15.3218,1491390.523
20020729,0,15.7752,16.205,15.539,16.2003,1459419.47
20020730,0,16.2003,16.3325,15.7185,16.2144,1151783.327
20020731,0,16.1767,16.3892,15.95,16.1908,1111132.073
20020801,0,16.3844,16.3844,15.676,15.676,1411146.068
20020802,0,15.5768,15.9783,15.3973,15.6335,1493295.152
20020805,0,15.6193,15.9358,15.0526,15.0573,1196880.491
20020806,0,15.4918,15.8413,15.4399,15.6901,1095887.85
20020807,0,15.9405,15.9877,15.4587,15.898,890514.814999999
20020808,0,15.9405,16.5403,15.7988,16.5214,820645.328999997
20020809,0,16.4128,16.9796,16.0633,16.7717,1001296
20020812,0,16.7717,17.1071,16.4128,17.0079,764797
20020813,0,16.6537,16.9041,16.2759,16.2806,1709678.341
20020814,0,16.3656,16.5403,16.0492,16.4695,1577138.47
20020815,0,16.5073,16.9843,16.5073,16.8946,1581373.057
20020816,0,16.8379,16.8379,16.4175,16.5781,1772136.345
20020819,0,16.5308,16.7482,16.3041,16.649,1508539.547
20020820,0,16.649,16.649,16.1625,16.2475,769619.633999999
20020821,0,16.2853,16.5073,16.035,16.4175,770466.555999998
20020822,0,16.3703,16.8851,16.3703,16.819,1042109.93
20020823,0,16.819,16.819,16.5356,16.5923,959537.073999998
20020826,0,16.5781,16.8615,16.342,16.7765,605533.077999999
20020827,0,17.1213,17.1921,16.8238,16.9276,1218476.669
20020828,0,16.9134,16.9181,16.4789,16.5356,799472.943999999
20020829,0,16.3656,16.5545,16.1105,16.205,1135056.825
20020830,0,16.2003,16.6584,16.1767,16.46,1024959.522
20020903,0,16.2191,16.2238,15.6996,15.8649,1229062.938
20020904,0,15.9405,16.0255,15.4399,15.9168,800319.670999999
20020905,0,15.7752,16.153,15.7563,16.068,913381.018999999
20020906,0,16.3041,16.5308,16.153,16.3797,743154.351999999
20020909,0,16.2711,16.4317,16.12,16.3325,976051.655999999
20020910,0,16.3892,16.7151,16.3562,16.682,784652.051999999
20020911,0,16.767,16.8851,16.767,16.8048,1481439.224
20020912,0,16.767,16.819,16.46,16.564,1680248.691
20020913,0,16.4695,16.7528,16.3986,16.6301,1522089.947
20020916,0,16.6348,16.9323,16.4931,16.8048,1132092.481
20020917,0,16.5308,16.6584,16.2994,16.4553,1782511.323
20020918,0,16.4837,16.6962,16.3041,16.6064,1460266.383
20020919,0,16.2947,16.6253,16.1625,16.1625,1659499.484
20020920,0,16.1625,16.3656,16.0916,16.0964,922696.318999997
20020923,0,16.2003,16.4647,16.0208,16.1577,965465.148999999
20020924,0,16.1058,16.1058,15.624,15.6335,1294697.417
20020925,0,15.813,16.4081,15.5863,16.3231,2842829.925
20020926,0,16.3892,16.9087,16.3183,16.8001,1025806.741
20020927,0,16.6443,17.1685,16.6159,16.8473,1021996.099
20020930,0,16.852,17.1213,16.4884,17.0032,1230121.621
20021001,0,16.5781,17.0882,16.5781,17.074,1084243.105
20021002,0,17.0032,17.792,16.9607,17.2299,3042275.566
20021003,0,17.0032,17.2583,16.7198,16.9087,1782723.574
20021004,0,16.956,17.0977,16.3609,16.5308,1408182.227
20021007,0,16.5073,16.8284,16.2947,16.3136,1105627.1
20021008,0,16.342,16.4506,15.8649,16.1577,1544744.722
20021009,0,16.1295,16.1719,15.6571,15.7799,1237955.369
20021010,0,15.7327,15.7941,15.3028,15.761,2803660.458
20021011,0,15.898,16.1577,15.7563,16.0397,1202597.191
20021014,0,16.0585,16.9937,16.0113,16.9087,1569939.791
20021015,0,17.2114,17.514,17.2114,17.4194,1623595.016
20021016,0,17.4336,17.4809,17.008,17.1688,998647.318000001
20021017,0,17.6085,17.774,17.2964,17.741,885289.487
20021018,0,17.6606,17.8307,17.3958,17.6606,1008802
20021021,0,17.5046,18.0861,17.4951,17.897,1396895
20021022,0,17.4714,17.6132,16.9891,17.5897,2388124.718
20021023,0,17.6038,18.4266,17.5897,18.3557,2499367.268
20021024,0,18.5826,18.5968,17.9821,18.0908,1315033.842
20021025,0,18.0624,18.0672,16.9182,17.2114,4619749.529
20021028,0,17.6085,17.6653,16.9371,17.339,1695712.727
20021029,0,17.131,17.1404,16.6865,16.8946,1557822.051
20021030,0,16.9182,17.8544,16.9182,17.6322,1910372.741
20021031,0,17.7788,18.0814,17.4005,17.566,1890493.239
20021101,0,17.4242,17.8828,17.4194,17.7788,1487608.027
20021104,0,17.9301,18.0766,17.7126,17.9111,2096271.582
20021105,0,17.9774,18.0624,17.6227,17.8449,1101853.411
20021106,0,17.9111,18.0199,17.6653,17.9962,1474283.824
20021107,0,18.105,18.105,17.6889,17.9018,1328568.411
20021108,0,17.8544,17.9206,17.5991,17.7173,937738.593000001
20021111,0,17.6794,17.9585,17.4525,17.566,753743.988
20021112,0,17.6038,17.7268,17.3768,17.4336,834955.657000002
20021113,0,17.3958,17.6606,16.7007,16.9276,2556469.215
20021114,0,17.0459,17.8119,17.0317,17.7788,2958084.235
20021115,0,17.2823,17.8449,17.2823,17.7646,1713688.063
20021118,0,17.9679,17.9962,17.7078,17.949,1391804.7
20021119,0,17.9632,18.2044,17.7788,18.1192,1415702.144
20021120,0,18.2044,18.8474,18.1996,18.8474,2435286.418
20021121,0,18.89,19.2588,18.8001,19.1027,2520727.709
20021122,0,18.4644,18.5826,18.1476,18.1523,6621906.83799999
20021125,0,18.384,18.384,18.157,18.2658,2245370.052
20021126,0,18.2753,18.2753,17.8166,17.8261,1469208.234
20021127,0,17.8781,18.2044,17.8402,18.1098,1365156.706
20021129,0,18.2421,18.4833,18.2374,18.332,1038195.416
20021202,0,18.6583,18.6583,18.28,18.488,1962399.052
20021203,0,18.5022,18.7954,18.3604,18.6725,2466588.14899999
20021204,0,18.6535,18.6535,18.3131,18.3792,1165088.713
20021205,0,18.6488,18.6535,18.3934,18.5874,2046359.805
20021206,0,18.5164,18.9135,18.4928,18.8332,1457365.388
20021209,0,18.8474,19.15,18.6015,18.6062,1944845.021
20021210,0,18.6299,19.0318,18.5874,18.9846,1285425.202
20021211,0,18.9892,19.1736,18.7245,19.0555,1767195.395
20021212,0,19.046,19.7364,19.046,19.6418,2848535.81099999
20021213,0,19.6702,19.7978,19.3864,19.4621,1799341.418
20021216,0,19.5803,19.812,19.5236,19.5708,1631843.7
20021217,0,19.5189,19.6654,19.2304,19.2588,1293462.465
20021218,0,19.1973,19.2021,18.8238,18.8521,1441503.34
20021219,0,18.8521,18.9987,18.6299,18.8379,1880341.617
20021220,0,19.15,19.5472,19.1075,19.5236,2713816.517
20021223,0,19.5708,19.8593,19.3722,19.7364,1508967.749
20021224,0,19.7694,19.7789,19.533,19.533,462313.172
20021226,0,19.5377,19.6465,19.4006,19.4006,657939.812000001
20021227,0,19.429,19.533,18.923,18.9704,1355004.716
20021230,0,19.0791,19.2682,18.8758,18.9562,1323916.364
20021231,0,18.89,18.9609,18.6393,18.871,842357.494
20030102,0,19.1264,19.4385,19.0318,19.4385,1011759.852
20030103,0,19.5047,19.5993,19.2777,19.3486,1512774.828
20030106,0,19.3249,19.5424,19.2021,19.2209,1575163.526
20030107,0,19.2493,19.2493,18.2044,18.3651,2816388.62099999
20030108,0,18.3273,18.4975,18.157,18.2658,2207090.746
20030109,0,18.3415,18.5826,18.2895,18.559,1644743.655
20030110,0,18.5826,18.6062,18.3462,18.4076,1217326.183
20030113,0,18.6015,18.6062,18.157,18.3178,2035573.762
20030114,0,18.488,18.5637,18.3651,18.3982,1945691.481
20030115,0,18.4219,18.7863,18.3982,18.739,1504036.227
20030116,0,18.8147,19.0088,18.7106,18.7438,2820886.878
20030117,0,18.7438,18.7626,18.4929,18.6017,1371146.994
20030121,0,18.5828,18.5828,18.1757,18.1757,1686574.576
20030122,0,18.1284,18.2894,17.7498,18.1142,2967719.798
20030123,0,18.152,18.2183,17.8775,18.1426,1779744.818
20030124,0,18.1284,18.1378,17.7498,17.7781,2125594.3
20030127,0,17.5272,17.5888,16.8978,17.035,2132777.772
20030128,0,17.106,17.7261,17.106,17.5557,3071454.337
20030129,0,17.4752,18.3651,17.4232,18.2183,3072087.343
20030130,0,18.223,18.5307,17.9012,17.9106,1469177.022
20030131,0,17.9438,18.5071,17.8113,18.3982,1511675
20030203,0,18.3509,18.4597,18.152,18.3082,1057458
20030204,0,18.313,18.9236,18.081,18.9047,2953776.122
20030205,0,18.933,19.075,18.7626,18.8195,2364964.495
20030206,0,18.7674,18.9425,18.5496,18.6916,1388471.325
20030207,0,18.7248,18.8668,18.3934,18.4786,1006282.361
20030210,0,18.6017,18.7153,18.4692,18.6538,1061424.297
20030211,0,18.7768,18.9236,18.5166,18.5876,885435.485
20030212,0,18.6017,18.6491,18.081,18.081,2169326.948
20030213,0,18.1426,18.223,17.8965,18.1615,1291286.932
20030214,0,18.242,18.3887,18.1,18.3792,1045790.09
20030218,0,18.4408,18.6916,18.3367,18.6728,1063114.29
20030219,0,18.6821,18.8147,18.5828,18.8005,990225.980999999
20030220,0,18.7958,19.165,18.7816,19.0325,3453218.433
20030221,0,19.0277,19.3543,19.0277,19.2597,3835197.909
20030224,0,19.217,19.6998,19.2076,19.6951,3606391.45
20030225,0,19.927,20.2726,19.6762,19.8229,4722745.89
20030226,0,19.8087,20.0832,19.6903,19.9554,1615164.53
20030227,0,20.1022,20.1022,19.4537,19.6241,2202708.59
20030228,0,19.7425,19.9839,19.4679,19.5484,1506571.607
20030303,0,19.5484,19.6193,19.2691,19.3543,3911890.39
20030304,0,19.4774,19.6241,19.3591,19.3779,2184117.421
20030305,0,19.4774,19.6762,19.3827,19.662,1595939.014
20030306,0,19.5626,19.8513,19.5578,19.804,1513755.287
20030307,0,19.7377,19.927,19.6667,19.9034,1422697.107
20030310,0,19.7992,20.2726,19.7992,20.0264,3769703.603
20030311,0,20.0454,20.1732,19.714,19.7425,1768547.501
20030312,0,19.7566,19.7566,19.1366,19.4111,2391795.904
20030313,0,19.5721,19.5721,19.004,19.0845,2741659.954
20030314,0,19.1035,19.1177,18.5544,18.7579,3077158.089
20030317,0,18.81,18.9804,18.5876,18.6964,2542643.569
20030318,0,18.7011,19.004,18.1284,18.9993,4286471.79800001
20030319,0,19.0655,19.094,18.7626,18.9567,1774251.585
20030320,0,18.9662,19.2881,18.8431,19.1744,1745307.528
20030321,0,19.2644,19.2644,18.5307,18.5923,1840801.476
20030324,0,18.6206,18.8147,18.2609,18.3651,1368611.934
20030325,0,18.3887,18.862,18.3887,18.6348,1844182.159
20030326,0,18.6017,18.6017,18.3509,18.4171,1875027.91
20030327,0,18.3934,18.8383,18.3272,18.7201,2252568.495
20030328,0,18.6821,19.0892,18.6821,18.9757,994028.759
20030331,0,18.9378,19.0277,18.7058,18.7343,1720165.991
20030401,0,18.8431,19.0655,18.7863,19.023,1444668.996
20030402,0,19.0277,19.0277,18.6064,18.7153,1978127.956
20030403,0,18.9141,18.9141,18.3367,18.3792,2049960.183
20030404,0,18.4124,18.4929,17.9675,18.0385,4232808.759
20030407,0,18.0432,18.0432,17.7781,17.8066,3260117.487
20030408,0,17.7592,17.7592,17.4468,17.4799,2716730.217
20030409,0,17.4989,17.6787,17.4657,17.5036,1994606.772
20030410,0,17.745,18.2562,17.745,18.2325,3048635.396
20030411,0,18.2372,18.3367,17.8066,18.1047,2065171.155
20030414,0,18.1237,18.2184,18.0527,18.1473,1393561.913
20030415,0,18.0289,18.1758,17.9626,18.1237,1878976.589
20030416,0,18.2658,18.2896,17.83,17.8678,1208260.076
20030417,0,17.8678,18.3795,17.8678,18.3417,1519347.472
20030421,0,18.37,18.5833,18.2516,18.5549,1461097.721
20030422,0,18.5217,18.8297,18.3511,18.7539,1381109.874
20030423,0,18.7539,18.8866,18.4127,18.479,1285926.488
20030424,0,18.408,18.6069,18.1142,18.2184,2331044.9
20030425,0,18.081,18.119,17.9199,18.0905,1748547.313
20030428,0,18.1142,18.3084,17.9247,18.0289,976527.197
20030429,0,17.9579,17.991,17.3229,17.4082,2431504.811
20030430,0,17.5077,17.7968,17.5077,17.6877,2949631.452
20030501,0,17.6689,17.8157,17.4272,17.5693,1846052.411
20030502,0,17.5646,17.773,17.5551,17.6546,2197924
20030505,0,17.7635,18.2184,17.6972,17.8868,2178308
20030506,0,17.8868,17.9816,17.6356,17.7162,1476504.32
20030507,0,17.6925,17.9199,17.394,17.6925,2818568.869
20030508,0,17.6594,17.8488,17.484,17.6499,1750446.955
20030509,0,17.6451,17.991,17.5361,17.9721,3287944.567
20030512,0,18.0479,18.5075,17.901,18.3037,2553702.915
20030513,0,18.1758,18.6022,18.1616,18.5406,1830855.76
20030514,0,18.479,18.7349,18.4553,18.7255,2061322.885
20030515,0,18.7207,18.9434,18.7207,18.8866,1644921.962
20030516,0,18.8818,18.9955,18.6828,18.9481,1475449.237
20030519,0,18.9339,19.114,18.787,18.8439,2232695.552
20030520,0,18.8676,18.8961,18.4127,18.5264,2183309.556
20030521,0,18.5738,19.5926,18.4885,19.4693,3608106.801
20030522,0,19.4836,19.711,19.4598,19.5878,2244092.599
20030523,0,19.5831,19.9952,19.4978,19.9053,1439359.518
20030527,0,19.8958,20.3364,19.8247,20.2417,1957487.2
20030528,0,20.3364,20.3364,20.0237,20.0853,2400690.998
20030529,0,20.0805,20.09,19.9242,19.9716,3530440.356
20030530,0,20.0663,20.4217,19.8058,20.4217,2938657.047
20030602,0,20.4596,20.8481,20.4028,20.6018,2765173.52
20030603,0,20.4217,20.9287,20.398,20.9192,2326401.554
20030604,0,20.9666,21.2414,20.6729,20.8434,3200568.998
20030605,0,20.8245,20.8386,20.5354,20.8293,3039538.952
20030606,0,20.8719,21.2036,20.6823,20.7202,2776571.41
20030609,0,20.7013,20.7013,20.5165,20.5165,1829590.414
20030610,0,20.5639,20.7534,20.4217,20.5639,1975425.84
20030611,0,20.5449,21.5258,20.5449,21.4215,2652684.582
20030612,0,21.4262,21.5874,20.5401,20.7581,2989942.338
20030613,0,20.7345,20.7345,19.8768,20.1801,5148980.465
20030616,0,20.1753,20.1753,19.6162,19.9006,2648885.792
20030617,0,19.8768,20.0237,19.6684,19.7537,2885471.915
20030618,0,19.782,19.9716,19.4503,19.5688,2914808.911
20030619,0,19.5783,20.2417,19.204,19.9194,2539773.05
20030620,0,19.9479,20.0711,19.692,19.7252,2136034.042
20030623,0,19.8058,20.0095,19.6779,19.9432,1937436.954
20030624,0,19.9716,20.1138,19.8247,19.8295,1352617.688
20030625,0,19.9006,20.4455,19.7773,20.3743,3081537.316
20030626,0,20.3269,20.4928,19.8579,19.8911,2962717.773
20030627,0,19.7205,19.9952,19.6636,19.8389,1694307.489
20030630,0,20.09,20.09,19.7537,19.8105,1572742.57
20030701,0,19.8247,19.8247,19.384,19.5973,1791601.597
20030702,0,19.602,19.6636,19.3414,19.403,2481734.15
20030703,0,19.3935,19.7963,19.2987,19.5215,1267564.696
20030707,0,19.6684,19.6684,18.9576,19.0808,2334422.05
20030708,0,19.076,19.1945,18.6544,18.9434,1847318.923
20030709,0,19.0903,19.2656,18.9529,19.1424,1354939.304
20030710,0,19.0855,19.1187,18.517,18.6734,2274272.366
20030711,0,18.7397,18.8344,18.5406,18.7017,1245826.947
20030714,0,18.716,18.7728,18.2469,18.2801,2256966.821
20030715,0,18.3513,18.4082,18.0286,18.1615,2252773.015
20030716,0,18.171,18.3133,17.9006,17.9575,2111132.481
20030717,0,17.9195,18.4556,17.8863,18.4414,2540271.141
20030718,0,18.4793,18.968,18.4793,18.8399,1741640.659
20030721,0,18.8589,19.0914,18.6597,18.7403,1435805.488
20030722,0,18.7166,18.7166,18.4556,18.541,1677565.975
20030723,0,18.598,18.764,18.2421,18.3797,1285732.937
20030724,0,18.4698,18.7023,18.1472,18.1472,1305546.043
20030725,0,18.076,18.5078,18.0618,18.4841,1769463.652
20030728,0,18.4414,18.6881,18.2943,18.5552,1809089.378
20030729,0,18.598,18.6027,18.114,18.152,1366881.543
20030730,0,18.5362,18.5362,18.1567,18.3228,2388933.871
20030731,0,18.3655,18.764,18.2042,18.3749,2193755.733
20030801,0,18.3987,18.5552,18.1947,18.4224,1401027.128
20030804,0,18.3133,18.3513,17.967,18.0855,1517165.098
20030805,0,18.1235,18.4793,18.0334,18.2469,2184084
20030806,0,18.3608,18.598,18.095,18.5267,2789850
20030807,0,18.5031,19.2574,18.5031,19.025,2974048.155
20030808,0,19.2005,19.2005,18.6692,18.821,1502831.297
20030811,0,19.1625,19.4473,19.1056,19.3571,2080989.924
20030812,0,19.3381,19.803,19.3381,19.803,2895217.044
20030813,0,19.803,19.8979,19.6702,19.6702,2336028.289
20030814,0,19.6417,19.8078,19.1815,19.5184,3089550.961
20030815,0,19.4425,19.7603,19.4425,19.6275,575629.283000001
20030818,0,19.656,19.9027,19.656,19.7034,799051.669
20030819,0,19.2432,19.5137,19.2337,19.376,2582003.795
20030820,0,19.3807,19.618,19.3096,19.4899,1260439.862
20030821,0,19.5468,19.7129,19.4661,19.7081,2204925.893
20030822,0,19.7366,19.8742,19.656,19.7983,1827005.082
20030825,0,19.8078,19.8789,19.637,19.6891,1507469.152
20030826,0,19.5848,19.675,19.3476,19.5943,1415781.776
20030827,0,19.6275,19.9501,19.6227,19.7983,1680516.273
20030828,0,19.8078,20.1257,19.6891,20.0023,2422447.433
20030829,0,19.9454,20.1352,19.8552,20.0782,835516.014
20030902,0,20.1162,20.1636,19.9264,20.1209,1456461.407
20030903,0,20.2537,20.2775,20.0545,20.1493,1216177.212
20030904,0,20.0924,20.3391,20.0782,20.1826,1724989.719
20030905,0,20.1399,20.1731,19.7509,19.784,1708127.843
20030908,0,19.7793,20.0118,19.7366,20.007,1620445.106
20030909,0,20.0165,20.0165,19.6891,19.7176,1122170.905
20030910,0,19.6275,19.6891,19.4377,19.5278,2095955.501
20030911,0,19.5421,19.5896,19.1958,19.3428,1622342.386
20030912,0,19.4235,19.4282,19.1863,19.3523,1072849.401
20030915,0,19.4425,19.4425,19.172,19.3238,901066.821000001
20030916,0,19.5468,19.6891,19.395,19.6844,1597470.147
20030917,0,19.6939,19.7176,19.1863,19.395,2613830.992
20030918,0,19.4377,19.7271,19.191,19.6891,2380502.84
20030919,0,19.6891,19.7366,19.4519,19.6655,1769463.849
20030922,0,19.6465,19.8173,19.4282,19.765,1840916.645
20030923,0,19.7698,19.8315,19.4282,19.6037,2227268.35099999
20030924,0,19.9264,20.0782,19.7129,19.8837,2359636.234
20030925,0,19.7176,19.8315,19.5896,19.656,1291213.102
20030926,0,19.5753,19.618,19.1151,19.2953,1338216.112
20030929,0,19.2574,19.4519,19.191,19.4282,1093294.583
20030930,0,19.3807,19.9311,19.3381,19.8647,1702015.889
20031001,0,19.6607,19.9027,19.6322,19.8409,1904992.584
20031002,0,19.9264,20.0545,19.7319,20.0545,1554261.216
20031003,0,20.0545,20.3154,19.9501,20.1636,832143.45
20031006,0,20.2727,20.2727,20.0593,20.1209,1071163.341
20031007,0,20.1162,20.2111,19.8884,20.1921,1200158.115
20031008,0,20.1873,20.2585,19.9786,20.1019,1611381.861
20031009,0,20.0972,20.1352,19.7509,19.9264,2203029.363
20031010,0,19.9739,20.2822,19.9739,20.2632,1942088.645
20031013,0,20.3534,20.3771,20.1683,20.287,591437.285
20031014,0,20.2964,20.2964,19.4661,20.1019,2929364.199
20031015,0,20.0449,20.0876,19.6316,19.6886,2030115.163
20031016,0,19.6934,19.9879,19.6934,19.9261,1120637.302
20031017,0,19.9024,19.9119,19.6934,19.7932,1382322.164
20031020,0,19.7124,19.7504,19.5414,19.7029,1306743.169
20031021,0,19.6839,20.1114,19.6839,19.9832,1967378.49
20031022,0,19.9974,20.1257,19.8406,19.9642,926110.618000002
20031023,0,19.9737,19.9737,19.6269,19.9024,1607376.084
20031024,0,19.9119,19.9974,19.7504,19.9404,1186532.11
20031027,0,19.8834,19.9499,19.6174,19.6507,1142952.868
20031028,0,19.6459,19.7219,19.4227,19.5604,2097273.212
20031029,0,19.5556,19.8359,19.5225,19.7646,1186111.004
20031030,0,19.8074,19.9309,19.5319,19.6126,1690956.138
20031031,0,19.5225,20.1589,19.4036,20.0164,1994367
20031103,0,20.0639,20.2112,19.8787,20.0497,1182462
20031104,0,20.1731,20.2112,19.7029,19.9737,1948586.596
20031105,0,19.9024,19.9974,19.7457,19.7789,1844431.329
20031106,0,19.8074,19.9072,19.5984,19.7836,1551165.209
20031107,0,19.9024,19.9214,19.7599,19.8264,1562323.665
20031110,0,19.8312,19.9356,19.7124,19.8264,1218532.683
20031111,0,19.8977,19.9309,19.7504,19.8596,833056.837000002
20031112,0,19.8977,20.2634,19.8312,20.2539,1765482.814
20031113,0,20.3489,20.4962,20.1399,20.4487,1533270.731
20031114,0,20.4297,20.7384,20.3061,20.4249,1712640.127
20031117,0,20.4249,20.4249,20.0164,20.1827,925688.862000002
20031118,0,20.2587,20.3014,20.0734,20.1874,1162532.019
20031119,0,20.3442,20.3442,20.1779,20.2301,1015163.047
20031120,0,20.2301,20.3774,20.1352,20.2396,1699587.544
20031121,0,20.3061,20.3061,19.9261,19.9689,1194321.39
20031124,0,19.9261,19.9499,19.7599,19.8074,2303379.416
20031125,0,19.8549,19.9452,19.7694,19.8929,2433905.92399999
20031126,0,19.9261,19.9261,19.8074,19.8977,1798534.926
20031128,0,19.9594,19.9974,19.8169,19.9214,296001.535
20031201,0,19.9499,20.2112,19.9261,20.1494,1373691.764
20031202,0,20.2112,20.3916,20.1922,20.3537,2365906.539
20031203,0,20.3251,20.3489,20.0734,20.1352,1728640.14
20031204,0,20.0449,21.3748,20.0449,21.2182,4275809.897
20031205,0,21.2561,21.3748,21.0709,21.1611,1534744.641
20031208,0,21.1992,21.3179,21.0424,21.3179,1619165.212
20031209,0,21.3084,21.4699,21.3084,21.3748,1842957.122
20031210,0,21.4746,21.5127,21.2704,21.2752,1278111.75
20031211,0,21.2799,21.4462,21.1801,21.4129,1086742.341
20031212,0,21.5411,21.7264,21.4367,21.7169,937478.530000001
20031215,0,21.6028,21.6076,21.4081,21.4177,1520428.72
20031216,0,21.4556,21.8309,21.4556,21.6694,1836640.457
20031217,0,21.6552,21.9782,21.5601,21.9496,1514744.194
20031218,0,22.0161,22.5719,21.9734,22.4342,3725281.908
20031219,0,22.3059,22.4104,22.0874,22.2727,1561270.745
20031222,0,22.2774,22.2774,21.9306,22.0874,1544007.792
20031223,0,22.0399,22.0447,21.6552,21.8832,1389901.411
20031224,0,21.9022,22.3724,21.8736,22.2204,755582.649000001
20031226,0,22.2062,22.3011,22.1443,22.2536,253053.883
20031229,0,22.2584,22.4578,22.0637,22.3961,1298112.075
20031230,0,22.4104,22.5149,22.2299,22.2774,1185268.843
20031231,0,22.3011,22.3344,21.8072,21.9544,1448217.289
20040102,0,21.8736,21.8974,21.5649,21.8119,1214532.418
20040105,0,21.8594,22.1397,21.7407,22.0969,1348427.94
20040106,0,22.3106,22.3724,21.9116,22.0542,1412428.074
20040107,0,22.0161,22.0161,21.7216,21.7881,2046536.217
20040108,0,21.8736,21.9211,21.5222,21.6884,1621060.78
20040109,0,21.7074,22.0874,21.5697,21.8024,3043173.18599999
20040112,0,21.8214,21.8214,21.4699,21.5839,1673271.409
20040113,0,21.5649,21.9496,21.5174,21.6409,2126958.13399999
20040114,0,21.8264,21.9881,21.736,21.9643,1490789.733
20040115,0,22.1212,22.3494,21.1558,21.2462,3345392.466
20040116,0,21.3032,21.5934,21.251,21.5505,1908858.728
20040120,0,21.6695,22.3256,21.6695,22.1925,1722115.917
20040121,0,22.183,22.2924,21.9214,21.9786,1798032.689
20040122,0,22.1117,22.24,21.4554,21.8977,2511147.883
20040123,0,21.9975,22.5634,21.9927,22.2686,1601826.129
20040126,0,22.202,22.2971,21.8596,22.2829,1260725.803
20040127,0,22.3733,22.4683,22.0356,22.1735,1713493.396
20040128,0,22.1069,22.1402,21.7693,21.8264,2079829.431
20040129,0,21.8264,21.8264,21.3746,21.5458,1853130.171
20040130,0,21.4887,21.5886,21.308,21.541,1636315
20040202,0,21.4887,21.7597,21.2272,21.4554,1460296.725
20040203,0,21.446,21.7883,21.3984,21.5648,1069566.693
20040204,0,21.541,21.6028,21.0084,21.1083,1576824
20040205,0,20.9989,21.0037,20.1858,20.4949,2976558
20040206,0,20.59,20.7945,20.2286,20.571,2604728.274
20040209,0,20.5092,20.8326,20.5044,20.5377,2086138.314
20040210,0,20.6423,20.8515,20.4474,20.8183,3131100.431
20040211,0,20.6946,20.7089,20.4521,20.5805,3070113.595
20040212,0,20.5805,21.0513,20.5805,20.9752,2944146.13
20040213,0,20.9657,20.9657,20.6946,20.804,1656082.061
20040217,0,20.8372,20.9989,20.8372,20.8896,1223503.443
20040218,0,20.8372,20.9466,20.6376,20.7041,1276497.869
20040219,0,20.7041,20.861,20.5044,20.5567,1070197.445
20040220,0,20.5472,20.5805,20.1858,20.4568,1828104.608
20040223,0,20.5187,20.6042,20.3427,20.4331,933715.246999999
20040224,0,20.4474,20.6614,20.3618,20.6137,1574698.174
20040225,0,20.5662,20.861,20.4854,20.7754,1259674.482
20040226,0,20.7897,21.037,20.7089,20.9276,2110322.889
20040227,0,20.9228,21.2748,20.8896,21.1606,1515814.901
20040301,0,21.2795,21.541,21.1511,21.5125,2114318.138
20040302,0,21.4222,21.8169,21.4222,21.5886,2207899.877
20040303,0,21.446,21.7978,21.2082,21.6599,2473504.672
20040304,0,21.6361,21.6647,21.094,21.2938,1957436.74
20040305,0,21.3984,21.7835,21.3746,21.6457,2638796.586
20040308,0,21.8026,22.0118,21.6504,21.7551,1582479.258
20040309,0,21.541,21.7075,21.3461,21.4887,1443262.759
20040310,0,21.6552,21.6552,21.1463,21.1463,1447258.965
20040311,0,21.0465,21.1369,20.7754,20.8088,1702557.625
20040312,0,20.8135,21.2319,20.8088,21.2272,883454.422999999
20040315,0,21.2843,21.5363,21.2843,21.446,1293952.202
20040316,0,21.5696,21.5839,21.308,21.4127,1736626.597
20040317,0,21.484,21.9119,21.4506,21.6171,1598671.634
20040318,0,21.6266,21.7313,21.3841,21.5934,2530494.719
20040319,0,21.541,21.6314,21.2367,21.27,1586684.5
20040322,0,21.27,21.5221,21.0845,21.3746,1457562.786
20040323,0,21.4317,21.4697,21.1131,21.2795,1739780.438
20040324,0,21.3651,21.3651,20.5948,20.6471,1368397.64
20040325,0,20.7327,20.823,20.5805,20.6709,2147544.414
20040326,0,20.6376,21.0988,20.6376,20.9228,1565024.92
20040329,0,20.9514,21.2653,20.9514,21.1749,1953441.362
20040330,0,21.213,21.7265,21.1939,21.5221,1761861.88
20040331,0,21.6076,21.8216,21.446,21.7931,1516025.234
20040401,0,21.8501,22.007,21.5505,21.6599,2517666.281
20040402,0,21.8977,21.9643,21.7027,21.8264,1676271.408
20040405,0,21.8739,21.9309,21.6884,21.7931,2714713.726
20040406,0,21.8074,21.9405,21.736,21.8787,1137492.147
20040407,0,21.8312,22.0642,21.7503,21.893,1918743.376
20040408,0,22.0642,22.3922,21.9975,22.3779,2146704.404
20040412,0,22.3827,23.0389,22.3827,22.7726,1930308.924
20040413,0,22.7678,22.9058,22.5159,22.5348,1673747.681
20040414,0,22.4159,22.6587,22.2254,22.6206,1775803.184
20040415,0,22.8539,23.2586,22.8539,23.1015,1855614.866
20040416,0,23.4014,23.4681,23.2491,23.4062,2539682.498
20040419,0,23.5347,23.8489,23.511,23.8442,2961842.882
20040420,0,23.5967,23.8061,23.3395,23.3538,1766141.882
20040421,0,23.211,23.33,22.93,22.9634,2038549.894
20040422,0,22.9967,23.3491,22.8729,23.3443,2018177.879
20040423,0,23.2824,23.3062,22.9634,23.1729,1096986.337
20040426,0,23.2729,23.5347,23.2729,23.4014,1365824.914
20040427,0,23.5919,24.1823,23.5253,24.0156,2315790.563
20040428,0,24.0108,24.0727,23.768,23.83,2081817.141
20040429,0,23.5824,23.7014,23.1729,23.3109,2634616.476
20040430,0,23.3538,23.7109,23.2634,23.4824,1637253
20040503,0,23.5442,24.7537,23.3823,24.7107,4808061
20040504,0,24.9154,26.0678,24.9154,25.7249,7764808.28599999
20040505,0,25.663,25.8106,25.3726,25.7297,3943942.344
20040506,0,25.7154,25.9059,25.3202,25.8106,3102772.996
20040507,0,25.8011,26.0344,25.6201,25.6726,3292849.501
20040510,0,25.2869,25.2917,24.5203,24.8488,4332077.123
20040511,0,24.9727,25.2297,24.8298,24.9917,2902193.536
20040512,0,25.0107,25.444,24.8346,25.2345,2496835.525
20040513,0,25.1869,25.4011,25.0345,25.2821,2004316.249
20040514,0,25.4488,25.9962,25.425,25.7868,2431726.86
20040517,0,25.7915,26.32,25.7915,25.9773,2075726.086
20040518,0,26.0201,26.0678,25.4725,25.6201,3075047.786
20040519,0,25.644,25.7535,25.1869,25.2107,2624954.059
20040520,0,25.2345,25.4536,24.9631,25.0202,2393921.624
20040521,0,25.2821,25.2917,24.7774,25.0726,2456510.727
20040524,0,25.163,25.7058,25.0916,25.6392,1594127.549
20040525,0,25.4821,26.001,25.4678,25.9773,1753540.609
20040526,0,26.0915,26.2058,25.7297,25.7535,1997805.008
20040527,0,25.7154,25.7154,25.2249,25.2964,2020908.377
20040528,0,25.3964,25.8345,25.3726,25.4678,1449416.923
20040601,0,25.7106,26.1772,25.6821,26.001,1381577.317
20040602,0,26.1867,26.2772,25.5916,25.6297,2425846.145
20040603,0,25.6297,25.8725,25.1202,25.2203,2378589.062
20040604,0,25.1441,25.1441,24.6775,24.8726,1992344.369
20040607,0,24.8393,25.444,24.6775,25.4345,2212244.973
20040608,0,25.4154,25.7011,25.1535,25.2203,1260599.954
20040609,0,25.1487,25.2012,24.7774,25.0536,1395438.926
20040610,0,25.5202,26.0296,25.5154,26.0296,2820491.585
20040614,0,25.9487,26.2915,25.6726,25.9962,2033300.201
20040615,0,26.2629,26.939,26.2295,26.9153,3735383.187
20040616,0,27.139,27.8056,27.1009,27.5675,3267854.72
20040617,0,27.677,27.8627,27.3865,27.7628,2162258.532
20040618,0,27.6294,27.796,27.5389,27.7437,1738417.549
20040621,0,27.7341,27.796,27.5008,27.7341,1175117.554
20040622,0,27.7817,28.1389,27.6866,28.0912,2337003.708
20040623,0,28.3293,29.134,28.2293,29.134,3672163.392
20040624,0,29.1672,29.4244,28.853,29.034,3505610.694
20040625,0,29.572,30.3242,28.6721,28.6911,2476253.549
20040628,0,28.734,28.734,27.9056,28.0436,2871319.864
20040629,0,27.9245,28.3769,27.9245,28.2579,2253831.763
20040630,0,28.3722,28.5578,28.2103,28.4388,2013976.726
20040701,0,28.5007,28.8864,28.4341,28.7149,2359476.404
20040702,0,28.8293,29.2197,28.7102,28.953,1573754.5
20040706,0,29.2101,29.7196,29.2101,29.3816,2824692.864
20040707,0,29.3434,29.6863,29.1435,29.6624,1991294.259
20040708,0,29.7148,29.9053,29.1387,29.5863,2003475.858
20040709,0,29.5863,29.9529,29.4958,29.791,1262910.129
20040712,0,29.7814,29.7862,29.4339,29.6434,2362836.762
20040713,0,29.6672,29.6672,29.2816,29.3768,2672210.914
20040714,0,29.3816,29.8676,29.3577,29.7866,1772817.548
20040715,0,29.7866,30.1202,29.5198,30.0773,2152813.095
20040716,0,30.2393,30.3061,29.7485,30.1726,2735289.555
20040719,0,30.1583,30.2584,29.8819,30.1393,1289169.603
20040720,0,30.1393,30.1583,29.7914,29.9295,1795059.385
20040721,0,29.9725,30.0964,29.0479,29.0575,2186595.102
20040722,0,29.1718,29.515,28.9621,29.2719,2301789.022
20040723,0,29.0718,29.2433,28.7858,28.986,1262521.539
20040726,0,28.9621,29.1718,28.3139,28.5427,2183657.431
20040727,0,28.414,29.2671,28.2615,29.2385,2066574.483
20040728,0,29.1957,29.8391,29.1194,29.8343,2720391.567
20040729,0,29.8391,30.0964,29.453,30.0678,2380683.516
20040730,0,30.125,30.4062,30.0726,30.2871,1523964.8
20040802,0,30.2871,30.4633,29.6436,30.2966,1591318.574
20040803,0,30.3824,31.5023,30.3728,30.9304,4469500.027
20040804,0,30.9256,30.9256,29.1622,29.2433,4421450.067
20040805,0,29.2671,29.4292,28.4664,28.6762,3695452.346
20040806,0,28.7143,28.7381,27.7278,27.8612,2630795.914
20040809,0,27.8803,28.6904,27.8803,28.2377,2635412.563
20040810,0,28.3569,28.5665,28.0804,28.3569,2244086.59
20040811,0,28.2329,28.333,27.4751,27.6515,2693743.39
20040812,0,27.7469,28.0852,27.1892,27.1892,2388447.62
20040813,0,27.2846,27.6324,27.275,27.4037,2988968.856
20040816,0,27.3704,27.6944,27.275,27.3989,1776594.907
20040817,0,26.4506,26.7269,26.3981,26.3981,3969484.33999999
20040818,0,26.522,26.8604,26.522,26.746,2500494.504
20040819,0,26.8699,27.1892,26.6411,27.1034,2514762.53
20040820,0,27.356,27.7373,27.2226,27.2846,2469858.924
20040823,0,27.2607,27.4656,26.7603,26.8651,1610832.582
20040824,0,26.8842,26.8842,26.4028,26.808,2681154.105
20040825,0,26.8794,27.2273,26.5887,26.7269,2460208.469
20040826,0,26.6888,27.2083,26.3075,27.1606,2004675.735
20040827,0,27.1797,27.4466,27.1606,27.3846,1258325.572
20040830,0,27.1797,27.5324,26.9271,27.1606,1437096.629
20040831,0,27.1606,27.5848,27.113,27.5657,902670.516000001
20040901,0,27.5943,28.1472,27.5229,28.0519,2186804.409
20040902,0,28.1424,28.3378,27.8374,28.0756,1587541.8
20040903,0,28.0804,28.1472,27.8803,28.0041,1045981.56
20040907,0,27.9947,28.1043,27.5324,28.1043,1500254.821
20040908,0,28.3187,28.4045,28.0423,28.071,2679056.101
20040909,0,28.1186,28.4807,28.0089,28.4522,2598272.885
20040910,0,28.4474,28.5379,28.1519,28.4379,1439614.528
20040913,0,28.8811,29.2958,28.8048,29.1194,3097448.801
20040914,0,29.2862,30.2013,29.2767,30.1107,4418301.026
20040915,0,30.0726,30.3442,29.8772,29.8962,2483078.278
20040916,0,29.8724,30.1726,29.6675,30.1059,1461856.159
20040917,0,30.2108,30.4443,30.2108,30.3014,1546415.829
20040920,0,30.3966,30.5396,30.1822,30.268,1714695.859
20040921,0,30.3061,31.2783,30.2013,31.1497,1951170.074
20040922,0,31.1735,31.1735,30.6922,30.8256,1820658.097
20040923,0,30.735,30.735,30.3442,30.3918,2199394.318
20040924,0,30.6922,31.0544,30.6254,30.8684,2125325.415
20040927,0,31.0257,31.1782,30.4062,30.7398,1374149.166
20040928,0,31.0734,31.5119,31.0209,31.3737,1781421.127
20040929,0,31.3879,31.8693,30.8113,30.9781,2525882.76
20040930,0,30.9638,31.5786,30.9638,31.3498,3282515.062
20041001,0,31.3832,32.1457,31.1973,32.0361,2840621.879
20041004,0,32.0313,32.3554,31.8216,32.1838,2012439.326
20041005,0,32.5032,33.2085,32.5032,33.0512,2219747.043
20041006,0,33.1703,33.6231,33.1703,33.4897,2011599.726
20041007,0,34.0759,34.5429,33.1179,33.1703,3307485.097
20041008,0,33.2037,33.5326,32.8463,33.2228,1553340.347
20041011,0,33.2228,33.2705,32.7795,32.9988,1282874.732
20041012,0,33.0656,33.2943,32.4745,32.4888,1639368.766
20041013,0,31.9832,31.988,30.9481,31.2248,4124689.829
20041014,0,31.2343,32.1072,31.2343,31.8687,2458043.7
20041015,0,31.9117,32.1025,31.5634,31.7591,1267909.792
20041018,0,31.8163,31.9832,31.3106,31.4156,1682370.539
20041019,0,31.3869,31.6827,31.2534,31.4919,1358893.68
20041020,0,31.6016,32.6271,31.6016,32.6129,2819253.977
20041021,0,32.8419,32.9659,32.3362,32.8419,2349658.055
20041022,0,33.0326,33.1757,32.7369,32.775,1255331.511
20041025,0,32.8657,33.1137,32.6081,32.8895,1760775.953
20041026,0,32.8609,33.3188,32.5651,33.2998,1479673
20041027,0,33.4142,33.9867,31.7209,32.341,3813814
20041028,0,32.6271,32.6271,31.0626,31.0674,4753403.309
20041029,0,31.0674,31.7686,30.9768,31.7018,2608984.467
20041101,0,32.007,32.3314,31.0579,31.2534,2600598.53
20041102,0,31.4156,31.573,30.5999,30.6953,2045888.654
20041103,0,31.3393,31.5206,30.8957,31.3393,3082353.54
20041104,0,31.7209,32.2455,31.5253,31.988,3542097.812
20041105,0,32.007,32.6129,32.0023,32.2503,1926812.183
20041108,0,32.1407,32.2455,31.0292,31.0722,2928477.372
20041109,0,31.6064,31.6064,30.6667,31.077,2683616.263
20041110,0,31.2343,31.5634,30.8385,31.5062,3090320.233
20041111,0,31.5491,31.6016,31.1818,31.2725,2804159.754
20041112,0,31.2582,32.6749,31.139,32.6558,2891161.094
20041115,0,32.6176,32.6224,31.6064,32.2027,3625952.377
20041116,0,32.2551,32.4603,31.74,31.9594,2274396.854
20041117,0,32.2694,32.546,32.0357,32.4984,2530997.394
20041118,0,32.4841,33.1042,32.3314,33.0803,3221555.511
20041119,0,33.1709,34.4684,33.1328,34.0248,4641245.824
20041122,0,34.3301,35.141,34.2872,35.0933,3554885.242
20041123,0,35.0695,35.6418,34.9884,35.308,2017166.803
20041124,0,35.3222,36.0998,34.9168,36.0282,2740638.899
20041126,0,36.0044,36.4909,35.8994,36.1713,919695.915
20041129,0,36.2763,36.3383,35.5512,35.8708,2624917.292
20041130,0,35.4892,35.8184,35.3128,35.804,2541060.108
20041201,0,35.8088,35.9423,34.7021,34.8214,3342100.093
20041202,0,34.8691,34.8691,33.1042,33.5716,4229719.95
20041203,0,33.3188,34.4779,33.3188,34.4207,3000383.343
20041206,0,34.5829,34.6258,33.9294,34.2728,1435203.491
20041207,0,33.9867,34.1059,33.19,33.3093,2466638.241
20041208,0,33.19,33.8484,32.6129,33.6814,2233516.898
20041209,0,33.7577,34.1536,33.4953,34.0057,1898300.769
20041210,0,34.6258,34.6258,33.1137,33.1805,2008991.424
20041213,0,33.3666,34.125,33.3427,34.1107,2240015.552
20041214,0,34.2537,34.4779,33.9723,34.4159,1725346.629
20041215,0,34.4637,35.0837,34.1154,34.955,2093266.915
20041216,0,34.8691,34.8691,34.1774,34.2537,1829328.762
20041217,0,34.3444,34.9311,34.3253,34.8501,2107312.965
20041220,0,34.893,35.1791,34.8214,35.1267,1419479.976
20041221,0,35.0408,35.3891,34.9884,35.2411,1357007.179
20041222,0,35.2746,35.3461,34.1298,34.2872,3111913.752
20041223,0,34.3492,34.8214,34.3157,34.5209,1727862.39
20041227,0,34.5352,34.5352,33.5383,33.543,1500820.669
20041228,0,33.6289,34.0439,33.6289,33.9914,1444847.025
20041229,0,34.1059,34.2109,33.7815,33.9914,2130373.273
20041230,0,33.8912,34.1059,33.6766,33.9676,1335414.068
20041231,0,33.9151,34.1822,33.8293,33.9723,1209839.63
20050103,0,34.0391,34.0391,31.5539,31.678,6045421.655
20050104,0,31.8211,32.1502,31.1485,31.2391,6083156.998
20050105,0,31.2438,31.4347,30.5761,30.9433,4019659.597
20050106,0,30.9815,31.9594,30.6189,31.449,4293660.236
20050107,0,31.4586,31.4586,30.8098,31.1818,2058256.65400001
20050110,0,31.5778,32.174,31.5443,31.7352,2309617.216
20050111,0,31.8878,32.1025,31.511,31.9259,2307310.778
20050112,0,32.0023,32.456,31.5583,32.3604,3131327.407
20050113,0,32.5371,33.0909,32.37,32.7472,2508204.032
20050114,0,32.728,33.4728,32.5992,33.4299,1995880.807
20050118,0,33.8023,34.3752,33.8023,34.1699,3385394.45
20050119,0,34.189,34.4802,33.8262,33.8643,1722544.318
20050120,0,33.6591,34.1938,33.2389,33.9646,2731690.269
20050121,0,34.5901,34.6044,34.0935,34.2081,2630523.224
20050124,0,34.4468,34.6473,34.4134,34.4229,2601411.342
20050125,0,34.5614,34.8001,34.1269,34.3418,1998812.961
20050126,0,34.5424,34.8908,34.2797,34.8479,2285973.806
20050127,0,34.8288,35.5163,34.7094,35.1916,1876282.934
20050128,0,35.1296,35.3683,34.8813,35.33,2947427.856
20050131,0,35.33,35.712,34.9816,35.478,3424980.21000001
20050201,0,35.6882,36.3326,35.6786,36.2802,2882519
20050202,0,36.2849,36.5666,36.1369,36.538,2503615
20050203,0,37.4785,37.574,36.2467,36.8769,4637716.433
20050204,0,36.9533,37.1157,36.3613,36.5762,3233121.766
20050207,0,36.5953,36.7624,36.1847,36.7481,2875793.314
20050208,0,36.7385,37.3257,36.3805,37.1013,2571040.029
20050209,0,37.0249,37.7888,36.6048,37.3448,3016547.918
20050210,0,37.6934,38.3045,37.5788,38.1803,2364099.72
20050211,0,38.1947,38.9633,37.9607,38.7724,3127975.41200001
20050214,0,38.8153,39.2689,38.8153,39.1829,3711932.512
20050215,0,39.2212,39.5744,38.8917,39.2212,2418139.036
20050216,0,39.2689,40.725,39.2689,40.5627,4152830.482
20050217,0,40.7966,40.8922,39.7559,39.8752,4412552.992
20050218,0,40.0328,41.1118,39.9994,40.8253,4129371.799
20050222,0,41.1643,42.1716,41.1643,41.3696,4953571.278
20050223,0,41.2025,41.6083,41.1452,41.2884,3527822.967
20050224,0,41.4889,42.1431,41.2837,42.1239,3347902.67
20050225,0,42.1764,43.8045,42.1764,43.6756,3788591.633
20050228,0,43.7807,44.5446,42.5966,43.4082,5428612.68200001
20050301,0,43.16,43.3509,41.7611,41.933,4264050.975
20050302,0,41.9855,43.1696,41.804,43.0358,2411332.032
20050303,0,43.6374,44.4968,43.3128,43.8284,2809187.798
20050304,0,43.8093,45.1843,43.5037,44.6973,1958703.203
20050307,0,44.4013,44.5446,43.3892,44.1531,1845912.436
20050308,0,43.9239,45.0315,43.9239,44.9455,2037247.339
20050309,0,45.2606,46.2251,44.4204,44.535,4479368.666
20050310,0,43.9239,43.9335,42.081,42.7875,3947671.917
20050311,0,42.8353,43.7329,42.7017,43.3892,2081966.046
20050314,0,43.4941,43.7807,42.4534,43.7043,1794805.859
20050315,0,43.5897,44.2772,42.8353,42.9022,1754381.233
20050316,0,42.8545,44.0003,42.1764,43.2554,2492075.97
20050317,0,43.4464,44.4776,43.4273,44.2485,3231341.115
20050318,0,45.8336,46.2442,45.3562,46.0341,4278294.555
20050321,0,46.0341,46.0437,44.8501,45.5376,2005620.864
20050322,0,45.5089,46.0341,44.3918,44.4776,1936919.743
20050323,0,44.1816,44.1816,42.4438,43.0263,3227571.402
20050324,0,43.1313,44.4108,42.883,43.4751,2089611.053
20050328,0,43.4464,43.962,42.9022,43.246,1654890.977
20050329,0,43.2364,44.1435,42.6826,42.6921,2259058.83
20050330,0,42.8735,44.2867,42.1096,44.2103,3606158.16
20050331,0,45.5949,46.6357,45.4994,46.4734,2959366.802
20050401,0,47.0271,48.0489,46.8839,48.0107,3102317.09100001
20050404,0,48.3831,50.1305,47.1322,47.8101,4043810.483
20050405,0,47.8101,48.6504,47.2182,47.6097,3010682.356
20050406,0,47.6478,48.1348,46.7026,47.7242,3445716.753
20050407,0,48.6027,48.66,46.2633,46.8649,2735251.483
20050408,0,46.693,46.8075,45.0315,45.1557,3011205.72
20050411,0,45.1557,46.4256,44.7355,46.3683,1974097.672
20050412,0,46.3683,46.5784,45.041,45.2225,2054213.605
20050413,0,45.2511,45.2989,43.5787,43.722,2477311.104
20050414,0,44.2477,45.2511,43.4736,43.6838,3203814.738
20050415,0,44.0565,44.1043,41.5622,41.6769,3573607.587
20050418,0,41.7629,42.8333,40.9028,42.8142,2446966.134
20050419,0,43.292,44.8019,43.2347,44.6013,2403750.884
20050420,0,44.5535,45.146,43.4353,43.5022,1792558.731
20050421,0,43.722,45.0313,43.5691,44.9931,1606302.089
20050422,0,45.0696,45.7864,44.563,45.1842,1760434.495
20050425,0,47.1816,47.1816,45.8245,46.1399,1790151.849
20050426,0,46.1686,46.2545,45.4423,45.7672,1894819
20050427,0,46.6368,46.6368,43.9992,45.7003,4146215
20050428,0,45.2798,45.8245,44.7159,45.2702,3102629.369
20050429,0,45.9679,46.2545,44.888,45.4327,2427817.311
20050502,0,44.8688,47.239,44.5344,47.2198,2659276.846
20050503,0,46.6847,46.9236,46.0635,46.331,2705527.593
20050504,0,46.6082,46.828,45.3467,46.5986,3678977.007
20050505,0,47.2103,47.8792,46.8949,47.6403,2883936.283
20050506,0,48.0131,48.166,47.2103,47.5161,2309262.81
20050509,0,47.8027,47.9652,47.3727,47.755,2177418.294
20050510,0,47.583,47.8983,46.6655,46.828,1530857.799
20050511,0,46.3501,47.1147,46.1591,46.7993,2537791.99
20050512,0,46.4457,46.5126,43.0053,43.4831,4962365.525
20050513,0,43.8176,43.8176,40.5206,42.881,4328885.939
20050516,0,42.7473,42.9002,41.5813,42.8046,2485368.805
20050517,0,42.5752,44.0947,42.5752,44.0278,1828763.608
20050518,0,44.3242,45.1269,43.7794,44.3624,2287078.716
20050519,0,44.5344,45.1652,44.2955,45.1269,1832739.371
20050520,0,45.4423,45.8723,44.9835,45.7481,2823768.475
20050523,0,46.7802,47.2771,46.3024,47.0669,1955375.55
20050524,0,47.0765,47.6594,46.6942,47.6117,1458029.874
20050525,0,47.583,48.2615,47.1242,47.8792,1796744.061
20050526,0,47.7837,48.3762,47.5638,48.3093,1487642.266
20050527,0,48.4718,48.7393,47.9939,48.682,1028594.223
20050531,0,47.4969,47.9557,47.2294,47.6308,2192800.236
20050601,0,46.9522,49.6472,46.9522,49.2936,1989488.093
20050602,0,49.5038,49.695,48.6916,49.2649,1866223.663
20050603,0,49.5517,49.953,48.8827,49.3797,1081122.768
20050606,0,49.8765,50.1346,49.3223,49.7906,1040627.627
20050607,0,49.934,50.1633,48.4908,48.5578,1842994.132
20050608,0,48.6629,50.7749,48.6247,50.125,2903293.882
20050609,0,50.364,51.7497,50.2015,51.702,2144142.711
20050610,0,51.8453,52.0173,51.291,51.7115,1411988.716
20050613,0,51.5586,52.3709,51.2337,52.2753,1329325.033
20050614,0,52.3136,53.0112,52.0173,52.9443,1579933.286
20050615,0,53.5177,53.8044,52.9634,53.1163,1671282.765
20050616,0,53.5654,53.8522,53.1641,53.5273,1359775.197
20050617,0,53.8044,53.9478,52.734,53.7184,2582367.822
20050620,0,54.6167,55.1711,54.1485,54.8078,2234236.873
20050621,0,54.4734,54.8938,53.8044,53.9764,2320354.224
20050622,0,54.4734,55.1136,54.0624,54.3778,3638273.526
20050623,0,54.4734,55.3526,53.9955,54.1676,2247944.019
20050624,0,54.3778,54.8078,53.1354,53.3839,1790151.377
20050627,0,53.5273,54.7601,53.5273,54.2822,2511423.314
20050628,0,54.1772,54.2058,53.1546,53.4699,2045887.307
20050629,0,53.4221,54.1389,53.3266,53.9095,1768387.316
20050630,0,53.4699,55.3717,53.4317,54.3109,2246165.344
20050701,0,55.1232,56.1171,54.9703,55.9547,1913938.304
20050705,0,56.3847,57.3882,56.1935,57.2735,2275149.785
20050706,0,57.4073,58.0094,56.251,56.4229,1814846.408
20050707,0,56.0981,57.6557,55.7158,57.6557,2182021.791
20050708,0,57.9138,58.6688,56.7766,57.7513,2089941.087
20050711,0,57.1493,57.9998,56.853,57.7417,1837448.199
20050712,0,58.0571,59.0128,57.8182,58.5923,1881815.095
20050713,0,59.0513,59.0513,57.5691,58.0568,1267388.766
20050714,0,58.4297,58.7167,56.2111,56.4693,2305664.865
20050715,0,56.6319,57.2822,55.5991,56.0295,2308070.389
20050718,0,56.0295,56.0295,54.9871,55.5417,1512083.018
20050719,0,54.681,57.5212,54.681,57.4926,1364325.314
20050720,0,57.856,58.3246,56.6415,57.9421,1682113.895
20050721,0,57.9994,58.4488,56.8423,57.5308,1746842.783
20050722,0,58.0951,60.7344,57.6073,60.6866,2158639.458
20050725,0,60.4858,62.1115,59.9693,61.4516,2268453
20050726,0,62.1306,62.5322,61.2125,62.3792,2186577
20050727,0,62.4462,63.0008,60.8874,60.9544,3182693.635
20050728,0,59.4913,60.9257,56.431,58.0951,5273363.495
20050729,0,58.3819,58.7167,58.0663,58.3723,1813871.92
20050801,0,60.2945,60.2945,58.4776,58.5637,1585804.546
20050802,0,58.9557,59.9503,58.5445,59.9216,1908402.954
20050803,0,59.9789,60.2084,58.8887,59.2618,1351358.745
20050804,0,59.4338,60.5909,59.1182,59.606,1837504.551
20050805,0,60.1129,60.2084,58.5062,59.1757,1369762.798
20050808,0,59.7302,60.5719,59.2043,59.3669,1814290.008
20050809,0,59.5199,59.8642,58.6784,59.1088,1223364.668
20050810,0,59.9599,60.9353,59.5295,60.3806,2209774.673
20050811,0,60.3902,61.3178,60.371,61.1934,1686401.2
20050812,0,61.2604,61.6238,60.6962,60.983,1471404.942
20050815,0,61.7768,61.7768,59.9216,60.1415,1360247.069
20050816,0,59.7686,60.4189,58.4297,58.4967,1697590.183
20050817,0,58.5158,59.6729,56.584,57.0622,2739840.763
20050818,0,56.8805,57.9707,56.1825,57.3491,2161253.629
20050819,0,58.2385,58.6688,58.1811,58.3628,1412950.446
20050822,0,58.8122,59.2712,58.1428,58.6688,1386808.019
20050823,0,59.1565,59.3383,57.2344,58.3341,1839804.959
20050824,0,58.3341,59.6537,58.0472,58.9557,1589778.282
20050825,0,58.3532,59.2712,58.3532,58.8887,1626586.835
20050826,0,58.8505,59.2904,57.6169,57.7603,1483953.332
20050829,0,60.0076,60.2659,58.1141,59.0322,2638615.983
20050830,0,59.5295,60.6579,59.5295,60.4379,2793169.926
20050831,0,61.2986,62.3601,60.3041,61.3465,4986423.451
20050901,0,62.255,63.6702,61.5185,63.479,3706379.684
20050902,0,63.2016,63.4216,62.0063,62.3984,2885297.104
20050906,0,63.3929,63.4503,62.1402,63.1826,1625959.537
20050907,0,63.5937,64.3587,62.7809,63.3833,2172337.987
20050908,0,63.785,65.1716,63.5459,64.4258,1999484.163
20050909,0,65.1908,67.6867,64.9421,67.3711,2743813.402
20050912,0,67.419,67.4572,66.0228,66.9408,3701779.072
20050913,0,66.9216,67.8876,65.3246,65.4298,4610173.065
20050914,0,65.9845,66.9025,65.2768,66.214,2771315.455
20050915,0,66.6539,67.0842,65.6498,66.9408,2482179.155
20050916,0,67.1703,67.9545,66.4626,67.591,2079166.267
20050919,0,69.9053,71.3015,69.3602,69.5037,2922001.528
20050920,0,69.4367,69.7714,67.897,68.49,2373426.163
20050921,0,69.7618,70.9955,69.1977,70.8616,2797561.625
20050922,0,71.2823,72.5065,68.2222,70.5747,2968743.701
20050923,0,69.8958,70.4791,68.8725,69.322,2028449.712
20050926,0,68.3848,71.531,68.3752,71.3971,2107086.132
20050927,0,71.1868,71.7223,70.1922,71.4928,1730111.308
20050928,0,71.8274,72.7742,70.2878,72.7168,2941241.675
20050929,0,72.9655,73.6349,72.1526,72.5447,3630044.963
20050930,0,72.4394,72.6785,71.4258,71.6266,2206218.675
20051003,0,72.7264,74.945,72.6595,74.7537,3985478.711
20051004,0,74.5816,74.5816,71.4832,71.5883,2953685.372
20051005,0,72.296,72.4682,68.1361,68.2509,3263735.931
20051006,0,65.0473,66.367,63.0678,64.6553,5571072.92999999
20051007,0,65.5063,66.1662,64.4544,65.9654,3152368.383
20051010,0,67.1799,67.2277,63.9093,64.8561,2539378.845
20051011,0,65.7932,67.7058,65.7932,67.2372,2386811.025
20051012,0,67.285,67.5145,64.7795,65.229,2914889.852
20051013,0,64.5878,64.5878,60.8657,62.9707,3748102.57
20051014,0,63.0569,64.4443,61.2389,63.9372,3431649.743
20051017,0,65.5447,66.5016,65.162,65.7744,2415198.149
20051018,0,65.162,65.6978,61.5642,61.6504,3030231.147
20051019,0,61.6599,63.5545,59.5069,63.5066,3897132.559
20051020,0,62.6741,62.9707,57.3732,58.5214,5592578.052
20051021,0,58.196,60.349,57.7559,58.5979,3807672.67
20051024,0,57.842,61.7556,57.7942,61.392,2585337.561
20051025,0,62.1287,64.674,61.4398,64.1955,3570228.375
20051026,0,64.1095,66.5877,62.8272,63.2961,3024170.554
20051027,0,64.3486,64.4347,61.0188,61.057,2771468.475
20051028,0,61.1911,63.9085,59.5548,63.3153,3599282.345
20051031,0,64.6453,65.9849,63.4492,64.8462,3300725
20051101,0,64.1095,65.449,63.5737,65.0854,2423479
20051102,0,65.3055,67.9369,65.3055,67.5063,3264540.135
20051103,0,67.6977,69.42,67.1906,68.5971,2754433.558
20051104,0,68.5015,68.5397,65.2098,65.4204,2693922.635
20051107,0,64.0138,64.8366,62.8177,63.4588,3483173.317
20051108,0,63.3057,64.6549,62.2914,63.3918,2312570.852
20051109,0,63.631,65.1812,61.7364,62.8751,3080813.952
20051110,0,62.2436,62.2722,59.4495,60.3681,3854701.26
20051111,0,59.6696,61.9948,59.6696,61.325,2224573.907
20051114,0,62.1957,63.0952,60.4064,60.6839,4097684.967
20051115,0,60.4542,64.9611,60.3777,63.1717,4163943.462
20051116,0,63.631,66.8748,63.5927,66.7408,4148266.642
20051117,0,67.4489,67.7838,65.7361,66.5111,3370407.277
20051118,0,66.8844,67.0853,65.0089,65.784,2497550.569
20051121,0,66.3198,69.1616,66.3198,69.0277,2795087.272
20051122,0,69.8506,70.5204,69.1329,69.774,2373603.13
20051123,0,68.4153,69.6018,67.4776,68.2431,2510404.758
20051125,0,68.6162,69.7836,68.5015,69.7549,742325.754
20051128,0,68.1282,68.2239,65.449,65.8031,2744504.732
20051129,0,67.1236,68.3578,66.5972,67.9943,3345534.363
20051130,0,68.8938,69.4678,67.956,68.6067,2712943.359
20051201,0,69.3626,71.6016,69.1808,71.506,3522572.661
20051202,0,71.6208,72.2332,70.2333,71.8313,2517303.054
20051205,0,73.7737,74.2999,71.9748,72.4246,2578545.026
20051206,0,71.6686,72.7116,71.1423,72.5011,2609374.788
20051207,0,72.9604,74.9985,72.0705,72.9125,2743564.243
20051208,0,73.257,75.3047,73.0274,75.1516,3024170.83
20051209,0,74.453,74.7306,72.702,73.2857,2560359.892
20051212,0,75.4961,76.5199,74.6349,75.4004,2639578.15299999
20051213,0,76.5486,78.4623,75.6778,75.7161,3901730.215
20051214,0,75.8788,77.4098,75.4004,77.2949,3153865.504
20051215,0,77.3524,78.4623,76.1658,77.3045,3100253.124
20051216,0,77.381,77.381,74.0607,74.1852,2611778.981
20051219,0,74.6157,75.1995,73.0178,73.6302,1970094.827
20051220,0,73.6302,74.5679,73.257,74.1564,1775499.794
20051221,0,74.6636,74.9889,72.9508,73.4771,2141384.85
20051222,0,73.9842,74.3574,72.5681,72.6924,2506016.04
20051223,0,71.4294,72.7212,70.3482,72.702,1968840.972
20051227,0,71.927,71.9653,68.6928,69.3913,2923528.75
20051228,0,70.1185,71.6112,69.7071,70.9796,1835383.031
20051229,0,70.9796,72.1184,70.0037,70.1855,1691161.116
20051230,0,68.8938,70.9031,68.8746,70.2333,1498551.669
20060103,0,70.8075,75.6396,70.8075,75.5822,4414659.47
20060104,0,74.3957,75.7735,74.166,75.6204,2988324.904
20060105,0,75.2568,75.2568,72.2523,72.7594,3428933.023
20060106,0,73.9268,75.5247,73.9268,74.3765,2804910.855
20060109,0,74.4626,75.0272,72.8551,74.8071,2543325.929
20060110,0,74.8645,76.4529,74.4626,74.7402,2516258.089
20060111,0,74.5488,75.3812,73.4483,74.8549,2802925.265
20060112,0,75.5537,77.7747,74.7591,75.0368,3276244.705
20060113,0,74.6729,77.0376,74.5773,76.7409,2658287.26
20060117,0,77.8801,78.9715,77.545,78.9331,3112771.673
20060118,0,78.263,78.5024,75.257,77.0089,2818208.028
20060119,0,76.5494,80.5511,76.3388,80.3117,3490691.56
20060120,0,81.4701,82.6381,79.9767,81.0584,3909349.182
20060123,0,80.4171,81.1829,79.3161,80.9244,3124785.108
20060124,0,80.0533,81.3361,79.5076,79.6608,2684608.186
20060125,0,79.699,80.3213,76.3004,77.7269,3717046.652
20060126,0,76.8749,77.0663,74.2805,76.6068,3717883.167
20060127,0,78.9811,78.9811,76.4153,76.9515,3140035.454
20060130,0,77.545,80.5894,77.4972,79.7948,2758564.12
20060131,0,79.4597,81.2691,78.7417,80.9436,2894590
20060201,0,81.518,83.203,79.0097,79.4406,4282078
20060202,0,79.1725,79.1725,75.3623,77.2386,4954322.62600001
20060203,0,76.3483,76.7504,75.1804,75.6016,3979543.722
20060206,0,76.444,77.9663,76.444,76.7504,3961786.001
20060207,0,74.9123,75.1995,70.7574,70.8436,5575936.554
20060208,0,70.8436,71.0351,68.3066,70.7192,5247528.7
20060209,0,71.0351,72.0881,66.5355,67.3493,5385618.457
20060210,0,67.6365,67.9237,65.2527,66.3823,6415340.672
20060213,0,65.7601,66.6313,64.8123,65.4155,4467036.842
20060214,0,63.1849,66.1813,63.1657,66.0952,5951350.44
20060215,0,66.8706,67.8279,65.4537,66.2196,4770583.83000001
20060216,0,66.6695,69.1682,66.6504,68.8427,4028115.319
20060217,0,69.8863,70.3458,68.4024,68.4598,3498212.993
20060221,0,70.4032,71.3223,68.9289,69.5033,2906473.13
20060222,0,69.1682,69.2927,67.1004,67.512,3340171.401
20060223,0,66.861,68.747,65.5303,66.8323,3982676.494
20060224,0,68.1247,68.4406,67.0238,67.1482,2618490.249
20060227,0,66.6791,66.9664,65.2431,65.2431,2844426.05
20060228,0,64.6113,64.7548,62.8114,64.5634,4310667.331
20060301,0,64.6783,65.808,64.4485,65.3389,2404042.029
20060302,0,65.4345,67.5407,64.8794,66.3823,3852317.462
20060303,0,66.2962,68.029,66.2962,67.3588,3358661.069
20060306,0,66.5355,66.9185,63.0125,63.6156,4179785.36200001
20060307,0,63.7784,63.9411,61.385,62.5146,3657194.084
20060308,0,62.3232,64.573,61.8924,63.8358,5775133.93000001
20060309,0,64.8602,65.2909,62.1701,62.4572,4070315.49000001
20060310,0,62.3902,63.9603,61.4616,62.6104,3095849.478
20060313,0,62.9933,65.0516,62.9838,64.707,2540252.426
20060314,0,64.8028,66.6791,63.4146,66.4207,3514613.247
20060315,0,65.4345,67.4546,64.8123,67.4546,3282826.234
20060316,0,67.1482,70.0107,67.0142,69.7905,4332289.781
20060317,0,70.2596,70.2883,69.0916,69.3406,2987531.062
20060320,0,67.9715,69.2927,65.4537,65.7696,4099668.657
20060321,0,64.8602,67.1196,64.6208,65.5111,2988887.901
20060322,0,65.5782,67.8279,65.3771,66.3823,3064305.78
20060323,0,66.9472,68.5938,66.8132,67.445,2896445.369
20060324,0,67.7705,69.4554,67.6269,68.8811,2594569.036
20060327,0,67.9715,69.3692,67.3971,68.8331,3020851.745
20060328,0,69.4076,70.25,69.0151,69.3692,2702366.906
20060329,0,69.4076,71.2265,69.4076,70.6234,3361689.812
20060330,0,70.7,72.0115,70.5564,71.0063,2652437.022
20060331,0,69.8959,70.0777,68.3832,69.0438,2455852.031
20060403,0,70.2692,70.7862,68.5172,68.9289,2693489.25
20060404,0,67.9237,70.1065,67.7323,69.9053,2574304.848
20060405,0,70.0395,71.1307,69.5512,71.1213,2349411.447
20060406,0,72.0881,72.0881,69.9341,71.4658,3076421.993
20060407,0,70.4415,70.9489,68.5172,68.9959,2563754.295
20060410,0,69.8863,71.3223,69.8863,70.7957,2386911.073
20060411,0,71.1311,71.5719,69.2819,69.6939,2132814.624
20060412,0,70.1059,70.7383,68.9274,69.1574,1936598.05
20060413,0,67.4998,69.1765,66.4172,68.8508,2887727.224
20060417,0,69.943,70.6712,69.0999,70.6712,1761985.472
20060418,0,71.2557,74.0629,71.2365,73.7659,3266906
20060419,0,73.2964,75.9217,73.2582,75.3085,2996169.434
20060420,0,74.59,74.9253,72.1275,73.4115,2599559.696
20060421,0,73.7947,74.5324,72.5683,74.2546,2938242.696
20060424,0,73.3444,73.3731,71.3898,72.0796,2156715.822
20060425,0,72.3096,73.0186,69.7514,70.2592,2664374.72
20060426,0,70.3838,72.0414,68.3046,68.6591,2747767.09
20060427,0,65.6315,69.646,65.6219,67.586,3282873.806
20060428,0,71.3802,71.3802,66.9249,67.2219,2449684.478
20060501,0,68.2472,69.7706,67.7777,68.7357,2881257.254
20060502,0,70.1538,70.5179,69.3394,69.7706,2950454.746
20060503,0,69.876,69.9813,68.1801,68.8316,3113272.308
20060504,0,68.0268,69.4831,67.1933,68.5538,2698208
20060505,0,70.9011,73.354,70.9011,72.9898,4465419
20060508,0,70.9969,71.6389,70.0484,71.3323,2644856.1
20060509,0,71.4282,72.0318,71.0449,71.5048,2061946.726
20060510,0,70.9969,72.6162,70.815,72.4917,2690570.852
20060511,0,73.2964,74.0533,70.0676,70.2784,2991263.65
20060512,0,69.4161,69.7514,65.7368,66.101,4235258.29
20060515,0,65.0087,65.4878,62.029,63.2554,4736653.55
20060516,0,64.156,64.4626,62.9392,63.6577,3428679.566
20060517,0,63.0829,63.9644,60.4576,61.0996,3627715.336
20060518,0,61.1762,62.2685,59.1833,59.4037,4325746.788
20060519,0,59.4994,61.1187,58.8767,60.2181,4900620.47
20060522,0,59.1162,60.5821,57.5736,60.2277,5062291.766
20060523,0,62.0385,62.7859,59.2216,59.5474,4030898.638
20060524,0,58.4455,60.2564,57.1042,58.7809,4669647.902
20060525,0,58.0815,60.6684,58.0815,59.8348,3473559.7
20060526,0,60.6493,61.6265,59.9881,60.9941,3226199.282
20060530,0,62.0385,62.4697,60.151,60.2947,2672097.412
20060531,0,60.266,62.8529,59.7294,62.8433,3843660.084
20060601,0,61.4444,64.0027,61.1187,63.0829,3868185.536
20060602,0,64.0793,64.0793,62.0002,63.1021,2935111.552
20060605,0,63.6577,63.9068,60.036,60.1414,3385887.79800001
20060606,0,60.4193,62.2493,60.1894,61.4444,3685641.008
20060607,0,60.745,61.3678,58.5126,58.6851,4058662.968
20060608,0,57.315,58.4935,54.6993,58.2252,8475733.032
20060609,0,58.5126,59.2983,56.7592,57.4108,3343200.754
20060612,0,57.2479,58.0623,55.1592,55.3221,3199169.628
20060613,0,54.728,56.6059,53.952,54.843,6104326.34
20060614,0,55.5233,58.1389,55.4178,57.9664,5630379.214
20060615,0,58.4455,60.4576,58.206,59.9785,4424690.222
20060616,0,59.5186,61.1092,58.3977,60.3905,4109802.506
20060619,0,60.151,60.1702,56.0023,56.5963,4273874.56
20060620,0,56.788,58.0719,56.2898,56.5389,3922561.704
20060621,0,56.7114,59.26,56.7114,58.3402,3393820.498
20060622,0,57.5353,58.848,57.4875,58.206,2748184.314
20060623,0,61.1953,62.9966,61.0612,61.9139,5506281.428
20060626,0,61.8181,63.0541,61.0325,62.9296,2464921.932
20060627,0,63.2936,64.0505,63.0445,63.4757,3709333.64
20060628,0,63.7631,64.0218,62.8912,63.6194,2904843.9
20060629,0,64.7692,66.5705,64.2038,65.7752,3427010.822
20060630,0,65.8136,67.0495,65.4015,66.5513,2602795.442
20060703,0,67.2699,68.1993,66.9345,67.9214,1366733.604
20060705,0,67.7298,68.8125,66.6375,68.6304,3593168.994
20060706,0,68.6975,69.4161,67.9118,68.0939,3750872.522
20060707,0,68.8891,69.349,65.6985,66.2926,4671945.01
20060710,0,65.3919,67.2986,65.3919,66.5513,3473559.308
20060711,0,67.1166,67.9502,66.6279,67.6052,2563447.314
20060712,0,67.1741,68.3142,66.465,67.3944,3026123.034
20060713,0,67.5095,68.2288,66.2438,66.6849,4058219.995
20060714,0,66.9917,67.4137,64.8149,67.2699,3288935.058
20060717,0,66.4068,66.7712,64.0765,64.6807,3679886.382
20060718,0,65.6876,65.7451,62.8299,64.0286,3261613.161
20060719,0,64.134,65.6204,63.8176,65.1409,2772011.551
20060720,0,65.3136,65.9465,63.7697,63.8368,2361350.982
20060721,0,64.1053,64.1533,61.66,61.8039,3638486.517
20060724,0,62.4751,64.8725,62.3313,64.6328,3238671.335
20060725,0,65.7068,67.5863,65.2177,66.5794,3062018.567
20060726,0,66.4068,69.226,65.8218,68.8425,3963115.11
20060727,0,69.4466,69.6288,67.3849,67.7493,3043143.607
20060728,0,67.1259,69.1014,66.7616,68.9384,2290334.852
20060731,0,69.9069,72.4577,69.7631,71.1631,4311312.403
20060801,0,69.2068,70.6261,68.152,68.6986,4910305.074
20060802,0,69.1397,70.3193,67.3849,67.8356,3551307.45
20060803,0,66.0232,67.5287,65.9752,66.5985,3216875.801
20060804,0,66.7424,67.3178,65.5629,66.7424,3073385.081
20060807,0,66.9246,67.9603,66.1382,67.0684,2901320.458
20060808,0,66.6561,67.711,66.2342,66.426,2946788.319
20060809,0,67.4328,68.7658,66.7424,67.4233,2789530.071
20060810,0,67.1835,67.3849,65.9081,66.9725,2855750.026
20060811,0,66.7904,66.8479,65.1122,65.4382,2105443.832
20060814,0,64.8629,64.8916,63.1464,63.482,2928329.354
20060815,0,64.2108,64.2108,63.0504,63.6162,2865343.498
20060816,0,63.5299,64.4697,62.2737,62.523,3737032.78
20060817,0,61.8326,62.897,61.5737,62.8107,3201233.029
20060818,0,62.8107,63.8656,62.4751,63.7218,2682746.283
20060821,0,63.856,64.6615,63.7218,63.8272,2030256.389
20060822,0,63.7697,64.6424,63.5299,64.5176,1812621.462
20060823,0,64.2492,64.9588,62.9258,63.1368,1953297.022
20060824,0,63.2902,64.7862,62.8683,64.7478,2391279.576
20060825,0,65.9752,67.0397,65.5437,66.2726,3125421.346
20060828,0,64.7287,66.0136,64.2971,65.1313,2043605.155
20060829,0,64.5272,64.5368,62.8107,63.0217,3737658.045
20060830,0,62.9354,63.5395,61.497,62.571,2879839.144
20060831,0,61.9956,63.2039,61.6888,62.2066,3405521.844
20060901,0,62.1875,63.4053,62.1875,63.3094,1358684.193
20060905,0,62.6382,64.0765,62.6382,64.019,1924202.52
20060906,0,62.5997,62.8587,60.4805,60.6244,3809820.983
20060907,0,60.097,61.0847,59.6367,60.3654,3169636.834
20060908,0,60.4134,60.7011,58.1407,58.39,2646144.088
20060911,0,57.5174,58.2558,56.0502,57.316,4409961.598
20060912,0,57.4214,58.2174,56.616,57.2968,2991106.684
20060913,0,57.2585,59.1572,57.2585,58.3421,3955502.375
20060914,0,58.4571,59.023,56.0886,56.4433,3781352.908
20060915,0,56.7215,57.5366,56.194,57.3447,3822855.847
20060918,0,58.3037,61.2573,58.2845,59.8284,5553617.234
20060919,0,60.1257,60.6148,58.4379,59.301,4028393.921
20060920,0,58.7161,59.6175,57.8242,58.5723,4976732.424
20060921,0,58.6873,61.3148,58.6585,59.9435,5529840.454
20060922,0,60.1257,60.3271,58.6585,59.4352,3985432.806
20060925,0,59.023,60.8353,58.2078,60.7299,5581981.74
20060926,0,60.4134,61.871,59.9435,61.6121,5052649.03
20060927,0,61.9093,62.7724,60.797,62.5997,4707371.7
