19980102,0,35.7175,36.1122,35.7175,36.0308,169959.056
19980105,0,36.2689,36.5007,36.1874,36.2689,431041.933
19980106,0,36.2689,36.3441,35.9556,36.1498,247039.121
19980107,0,36.1874,36.4631,35.9556,36.1498,345663.134
19980108,0,36.1122,36.1122,35.5983,35.6423,320927.522
19980109,0,35.4855,35.4855,33.8375,34.1133,351408.329
19980112,0,33.2109,33.9942,33.2109,33.9942,566370.747
19980113,0,34.1508,34.1508,33.0543,33.4491,477960.271
19980114,0,33.6433,34.1508,33.6057,34.0757,441574.354
19980115,0,34.4641,35.1722,34.2323,34.5833,592542.732
19980116,0,34.8589,35.2475,34.6584,35.1722,269381.168
19980120,0,35.4855,35.9931,35.285,35.8741,299064.063
19980121,0,35.7989,36.1874,35.5983,35.6423,353801.965
19980122,0,35.4855,35.5983,35.2475,35.4417,344386.543
19980123,0,35.3289,35.4855,34.1508,34.1885,597808.624
19980126,0,34.1508,35.2099,34.1133,35.1284,1544467.862
19980127,0,35.3289,36.1874,35.2475,35.755,323799.955
19980128,0,35.6423,35.9931,35.2475,35.3665,465512.094
19980129,0,35.4855,35.7175,35.3289,35.5608,1496916.641
19980130,0,35.5983,36.1122,35.5608,35.9556,555678.206
19980202,0,36.0308,37.0521,36.0308,37.0521,419870.789
19980203,0,36.8955,37.0521,36.6574,37.0083,272892.036
19980204,0,36.933,37.5221,36.8516,37.3216,1013051.707
19980205,0,37.3216,38.1487,37.3216,37.5221,697071.726
19980206,0,37.5973,38.5373,37.5973,38.5373,357951.164
19980209,0,38.6186,38.6939,37.4406,37.9106,721009.407
19980210,0,37.9482,38.1863,37.5973,37.7164,578499.107
19980211,0,37.992,38.2239,37.8354,38.0297,320927.428
19980212,0,38.2435,38.7161,37.5755,38.7161,361028.342
19980213,0,38.3632,38.5963,38.004,38.1616,477668.254
19980217,0,38.2435,38.5586,38.2057,38.4388,236295.199
19980218,0,38.4388,39.0312,38.3632,38.9493,283585.833
19980219,0,38.8358,38.9114,38.5207,38.5207,245181.936
19980220,0,38.9114,39.0689,38.4766,38.9493,549874.149
19980223,0,39.8566,39.8566,39.4219,39.5415,792675.668000001
19980224,0,39.6991,40.1717,39.5415,40.0961,742528.085000001
19980225,0,40.1717,40.5687,39.6235,39.6613,591134.608
19980226,0,40.0961,41.3563,40.0961,41.2367,427044.963
19980227,0,41.1988,41.1988,40.6443,40.8397,353411.099
19980302,0,40.7262,40.9594,40.2915,40.5687,309453.008
19980303,0,40.4867,40.9594,40.449,40.9216,256607.952
19980304,0,40.9216,41.117,40.8018,41.0791,276285.929
19980305,0,40.9972,41.5896,40.9594,41.1547,314372.399
19980306,0,40.9972,41.4321,40.9972,41.2367,425934.219
19980309,0,40.8018,41.3563,40.8018,41.1988,454975.211
19980310,0,40.4111,41.2745,40.4111,41.1988,630966.475000001
19980311,0,40.4867,41.5517,40.4867,41.5139,400701.933
19980312,0,41.2745,41.2745,40.7262,41.2745,467512.075
19980313,0,41.2367,41.2745,40.6821,40.7641,467987.758
19980316,0,40.6821,42.144,40.6821,42.0999,823303.519000001
19980317,0,41.9865,41.9865,40.9972,41.2367,541780.025
19980318,0,41.2367,41.5896,41.117,41.5896,407049.514
19980319,0,41.7093,41.9865,41.3563,41.9865,258195.016
19980320,0,42.3016,42.3394,41.5517,41.9047,377055.743
19980323,0,41.8668,42.2575,41.6714,42.2575,295646.629
19980324,0,42.3773,42.6545,42.2197,42.6166,371661.004
19980325,0,43.0074,43.1649,42.6923,42.812,431964.488
19980326,0,42.9696,43.2027,42.812,42.812,457514.374
19980327,0,42.8499,42.8499,41.829,42.1819,238358.11
19980330,0,42.2197,42.5348,41.3563,41.829,455133.836
19980331,0,42.0243,43.1649,42.0243,42.6923,248831.876
19980401,0,42.812,43.3225,42.5348,43.2846,286918.4
19980402,0,43.3225,43.7951,43.3225,43.5619,360076.195
19980403,0,43.7195,43.877,43.1649,43.2846,262796.959
19980406,0,43.3602,43.3602,42.7743,42.7743,224075.854
19980407,0,42.6166,43.2846,42.4591,43.0893,288981.321
19980408,0,43.0074,43.1271,42.7301,43.0452,327702.606
19980409,0,43.0452,43.6375,43.0074,43.6375,232962.521
19980413,0,43.5178,43.6753,42.8499,43.2027,461481.518000001
19980414,0,43.1649,44.4252,43.0452,44.2677,585738.950000001
19980415,0,44.1921,44.5828,43.877,44.4252,722056.497000001
19980416,0,44.3496,45.2129,44.1921,44.463,872498.565
19980417,0,44.7403,46.1581,44.4252,45.925,563680.063
19980420,0,45.843,46.3156,45.528,46.0825,584786.631
19980421,0,46.0006,46.1581,45.8052,46.0383,894556.985000001
19980422,0,46.0006,46.3156,45.843,46.2778,355632.767
19980423,0,46.1203,46.3156,45.0554,45.2129,869641.8
19980424,0,45.175,45.2129,44.1101,44.3496,624618.793000001
19980427,0,44.1101,44.1921,43.877,44.1479,548287.019
19980428,0,44.2677,44.5449,44.1101,44.5449,436407.804
19980429,0,44.5071,44.5449,44.1921,44.3874,390862.744
19980430,0,44.4252,44.8222,44.4252,44.6205,569075.983
19980501,0,44.5449,44.9356,44.2677,44.8978,165676.417
19980504,0,44.9356,45.4524,44.8978,45.1373,442755.704
19980505,0,45.528,45.7674,45.0175,45.2948,358330.542
19980506,0,45.2129,45.2948,44.2677,44.3496,219156.13
19980507,0,44.3369,44.9703,44.2989,44.3749,291450.091
19980508,0,44.5776,45.686,44.3749,45.325,462120.63
19980511,0,45.6037,45.8444,45.3693,45.762,344656.004
19980512,0,47.4279,48.2956,47.3455,47.6241,2036678.473
19980513,0,46.8705,48.1372,46.7945,48.1372,1192324.349
19980514,0,48.2196,48.5363,47.7445,48.0992,958974.629999999
19980515,0,48.1372,48.4919,47.8585,47.9789,1055757.054
19980518,0,47.4279,47.9029,47.4279,47.7825,446174.426
19980519,0,47.7001,48.3779,47.6622,48.1372,819249.873999999
19980520,0,48.1372,48.3779,47.7445,47.8585,433070.193
19980521,0,48.0168,48.0168,47.2695,47.7825,265715.464
19980522,0,47.7001,47.9029,47.5862,47.6622,238086.059
19980526,0,47.6622,47.6622,46.6741,46.6741,308974.988
19980527,0,46.4334,46.6361,45.6037,45.9204,574690.241
19980528,0,46.0027,46.5917,45.8823,46.5917,425807.489
19980529,0,46.9528,47.0668,46.1611,46.1611,516747.651
19980601,0,46.0027,46.9528,45.9204,46.3954,432596.854
19980602,0,47.0288,47.2695,46.6361,46.9528,366444.042
19980603,0,47.5038,47.5038,46.4778,46.7501,790041.832999999
19980604,0,46.7945,46.7945,46.0787,46.3574,468435.777
19980605,0,46.7121,47.4658,46.4778,47.3834,722941.561999999
19980608,0,47.5038,47.6241,47.2695,47.5038,289555.583
19980609,0,47.3455,47.9029,47.3455,47.5862,484697.767
19980610,0,46.7121,46.9528,45.5277,45.5656,971763.574999999
19980611,0,45.211,45.9584,45.211,45.4834,916504.752999999
19980612,0,45.287,45.6037,43.7035,44.5333,847037.102999999
19980615,0,44.2609,44.2609,43.2285,43.7415,449805.794
19980616,0,43.9442,44.3749,43.7035,44.1785,655210.196
19980617,0,44.2989,45.0526,43.9442,44.0202,723573.375999999
19980618,0,44.0202,44.2609,43.7035,43.9822,378601.049
19980619,0,43.8618,43.8999,40.9356,41.4866,2088621.909
19980622,0,41.0116,41.683,40.3783,40.5366,1233216.744
19980623,0,41.0116,41.645,40.9736,41.569,722625.959
19980624,0,41.683,42.12,41.645,42.12,402914.872
19980625,0,42.12,42.4367,41.7273,41.7654,374969.628
19980626,0,41.7273,42.9941,41.7273,42.2024,487855.478
19980629,0,42.4367,43.3868,42.3164,42.5191,518168.706
19980630,0,42.6774,44.1406,42.4367,44.0582,685839.42
19980701,0,44.1025,44.5776,44.0582,44.3369,589057.797
19980702,0,44.1785,44.3369,44.1025,44.2609,403704.365
19980706,0,44.4192,44.6536,44.3369,44.6536,623633.711999999
19980707,0,44.7359,44.7359,44.3369,44.3749,295239.253
19980708,0,44.3369,44.4573,44.3369,44.4192,292239.68
19980709,0,44.2989,44.3369,42.9941,43.0322,2100461.703
19980710,0,42.8358,43.3868,42.5951,43.1082,544851.026
19980713,0,43.1905,43.1905,43.0701,43.0701,329026.139
19980714,0,43.2285,44.2989,43.2285,44.1025,535377.691
19980715,0,44.1025,44.9703,44.1025,44.3749,962291.516999999
19980716,0,44.2609,44.5776,43.5452,43.5452,687259.993999999
19980717,0,43.2285,43.3489,42.3607,42.3988,624738.942
19980720,0,42.4367,42.9941,42.2784,42.7155,348445.531
19980721,0,42.6774,42.8358,42.5191,42.7155,356181.813
19980722,0,42.5191,42.6774,42.12,42.3607,492591.82
19980723,0,42.12,42.2024,41.0939,41.3663,588583.641
19980724,0,41.4487,41.9617,41.1699,41.4487,606108.842
19980727,0,41.3283,41.3283,40.2199,40.9736,515168.797
19980728,0,40.8532,41.0939,39.5866,41.0939,429122.93
19980729,0,41.3283,41.645,39.3078,40.6569,658841.484
19980730,0,40.8532,41.9237,40.8532,41.569,350024.496
19980731,0,41.8033,42.044,39.3902,40.1819,421702.758
19980803,0,40.1439,40.3783,39.5866,39.9412,339604.211
19980804,0,39.9855,40.5366,39.1939,39.2318,1009654.817
19980805,0,39.1115,39.3522,37.7243,38.3198,566006.923
19980806,0,38.5484,39.2238,38.5484,38.9499,244050.108
19980807,0,39.1856,40.0648,38.3127,39.3449,416219.174
19980810,0,39.3449,39.5042,38.6694,38.8287,420142.947000001
19980811,0,38.4274,38.5867,37.0383,37.7519,535497.870000001
19980812,0,37.7138,38.472,37.6755,38.3127,375256.567000001
19980813,0,38.3509,39.5042,37.4333,37.7138,429088.818
19980814,0,37.4716,37.5926,34.7254,35.9998,1137226.724
19980817,0,36.1591,37.5926,36.1591,37.4716,470208.595000001
19980818,0,37.5545,37.9495,37.3952,37.9495,398798.336
19980819,0,37.873,38.3891,37.3569,38.1088,500969.7
19980820,0,38.1088,38.1088,37.1976,37.7138,584778.882000001
19980821,0,37.5926,37.7138,36.0826,36.5605,484961.522
19980824,0,36.4777,36.8791,36.0379,36.3565,783785.565999999
19980825,0,36.9555,37.0383,36.4394,36.758,568142.395
19980826,0,36.5605,36.8791,36.1591,36.8791,507090.867000001
19980827,0,36.7963,36.9173,35.044,35.1651,457181.949000001
19980828,0,35.2416,35.7195,34.0119,34.1711,583994.098
19980831,0,34.3686,34.5661,32.3743,32.4572,454984.867000001
19980901,0,32.3743,33.4511,31.3038,33.0943,816273.103999999
19980902,0,33.2154,33.8907,32.8522,32.8522,490768.414
19980903,0,32.7757,33.8526,32.3361,33.6933,634687.303
19980904,0,33.7697,34.6872,32.8968,33.5721,650382.131
19980908,0,33.7697,34.8465,33.534,34.7254,468796.065000001
19980909,0,34.8082,34.8847,33.8079,34.2858,333980.008000001
19980910,0,33.7697,33.9672,31.5014,32.0557,553075.75
19980911,0,32.0175,33.4129,31.6989,33.4129,648812.439
19980914,0,34.0883,34.8082,34.0883,34.4068,429088.791
19980915,0,34.3686,35.3626,34.2476,35.3626,427362.345
19980916,0,35.4454,36.1591,34.0119,34.6044,649440.058
19980917,0,34.3686,34.3686,33.1325,33.6933,330370.197000001
19980918,0,33.6933,33.8526,32.9732,33.2154,979339.015999999
19980921,0,32.9732,33.2154,32.8522,33.1325,262098.92
19980922,0,33.3747,33.5721,33.0943,33.1325,542874.255
19980923,0,33.3747,33.8907,33.2154,33.7314,434110.885000001
19980924,0,33.929,34.6044,33.534,33.7697,922054.119
19980925,0,33.2154,33.5721,32.3361,33.534,754436.732999998
19980928,0,33.2154,35.9615,33.2154,35.4009,1033328.714
19980929,0,35.8405,36.5605,35.8405,36.1208,839344.310999998
19980930,0,35.6812,35.9615,34.5279,34.7637,384045.330000001
19981001,0,34.5661,34.5661,33.2154,33.33,686480.337
19981002,0,33.534,33.9672,32.9732,33.6486,1043372.95
19981005,0,33.6486,34.5661,33.4511,33.6933,507875.422000001
19981006,0,33.2918,34.6872,33.2918,33.7697,865240.120999999
19981007,0,33.7697,35.0058,33.6933,34.4451,712531.998999999
19981008,0,34.1711,34.2858,33.0115,33.5721,524511.908000001
19981009,0,33.4893,36.1591,33.1325,36.0379,769189.463
19981012,0,36.0379,36.5987,35.044,35.2416,925820.978999998
19981013,0,35.3244,35.3244,34.4068,34.6872,525924.443000001
19981014,0,34.6872,34.8082,34.3304,34.3686,570339.831
19981015,0,34.2476,39.0263,34.2476,38.4274,728070.032000001
19981016,0,38.867,38.867,37.9112,38.3509,485275.470000001
19981019,0,39.8228,39.8228,38.2298,38.7906,566887.432
19981020,0,38.0705,38.472,37.6755,38.1088,844052.631999999
19981021,0,38.1916,38.1916,36.7198,36.8344,417003.876
19981022,0,36.8344,36.8344,35.8787,36.0379,609733.198
19981023,0,36.0379,36.1591,34.7254,35.8022,954385.206999999
19981026,0,35.6812,36.2801,34.7254,35.3626,602513.726
19981027,0,34.8847,35.764,34.4451,34.5661,1080726.454
19981028,0,34.5661,34.7254,33.7697,33.9672,542717.35
19981029,0,34.1265,35.2416,33.8526,35.2416,1670213.844
19981030,0,35.2033,36.6751,35.1268,36.4012,532986.905
19981102,0,37.2359,37.8348,36.4012,37.3952,529847.781
19981103,0,37.3123,38.1916,37.3123,37.7519,376982.766
19981104,0,37.7519,38.3509,37.6755,37.9941,288936.592000001
19981105,0,37.5926,39.4277,37.5162,39.4277,437249.885000001
19981106,0,39.2542,39.4977,39.0939,39.3375,385404.689
19981109,0,39.3375,39.376,38.0109,38.5365,247002.303
19981110,0,38.5365,38.5749,37.4917,37.5751,212206.697
19981111,0,37.5302,37.5751,36.8893,37.2546,394454.722
19981112,0,37.5751,37.9724,36.8509,37.4533,393362.572
19981113,0,37.7353,38.3313,37.3315,37.8507,269471.273
19981116,0,37.9339,38.7351,37.9339,38.6966,287103.067
19981117,0,38.7351,39.4977,38.6134,38.7351,550801.054
19981118,0,38.5365,39.0939,38.4915,39.017,407561.442
19981119,0,39.0939,39.2542,38.1327,38.9722,512572.593
19981120,0,39.0555,39.2158,38.8953,39.1773,270875.466
19981123,0,39.3375,40.1387,39.2927,40.0553,423789
19981124,0,39.8951,40.6192,39.6131,39.658,467478.636
19981125,0,39.6964,40.0937,39.658,39.8951,357006.339
19981127,0,40.0168,40.1387,39.7349,39.7734,85506.7990000001
19981130,0,39.4144,39.7349,39.1324,39.2542,478401.258
19981201,0,39.0939,39.3375,38.8568,38.9722,534261.613
19981202,0,38.812,39.2542,37.8507,38.5365,515537.242
19981203,0,38.6134,38.7351,37.9339,38.0558,306295.16
19981204,0,38.2929,39.017,38.216,38.2929,348892.601
19981207,0,38.4531,39.5746,38.4146,39.5746,320494.403
19981208,0,39.3375,39.3375,37.9724,38.216,465138.467
19981209,0,37.0112,37.2546,36.7291,37.0944,762539.324
19981210,0,37.1329,38.1327,37.0112,37.3315,543310.728
19981211,0,37.2098,37.2546,36.3317,36.6522,599951.589
19981214,0,36.492,36.774,35.9729,36.492,408497.743
19981215,0,35.8895,36.0498,35.4088,35.7678,490727.874
19981216,0,35.7293,36.1715,35.05,35.4474,458428.458
19981217,0,35.7293,36.8893,35.7293,36.8893,428157.937
19981218,0,36.8893,36.8893,35.6909,35.8895,714636.881
19981221,0,35.05,36.8124,35.0116,36.2933,543935.731
19981222,0,36.2485,36.5689,35.7293,35.7293,584816.544
19981223,0,35.8895,37.3315,35.8895,37.2931,505863.069
19981224,0,37.2546,37.6136,37.0944,37.6136,119054.194
19981228,0,37.4917,37.5751,36.9342,37.1329,345459.657
19981229,0,37.1713,38.812,37.1713,38.3313,388057.367
19981230,0,38.3313,38.3313,37.6136,37.7353,251215.217
19981231,0,37.8122,37.8122,37.2546,37.3315,402412.563
19990104,0,37.2546,38.5365,37.0944,38.3313,632875.010999999
19990105,0,38.3762,39.8951,38.216,38.8953,591682.272
19990106,0,38.812,39.6964,38.6134,39.6964,329544.558
19990107,0,39.4977,39.5746,38.5365,39.1773,391802.229
19990108,0,39.2158,40.7795,39.1773,40.6577,630690.298
19990111,0,40.536,41.4973,39.4529,39.6964,781263.477
19990112,0,39.5746,39.8951,38.8568,38.9337,604632.819
19990113,0,37.8122,38.5365,37.2931,37.4148,924502.957
19990114,0,37.2546,37.8955,36.774,37.0112,821207.964
19990115,0,37.4148,37.7738,36.9342,37.6905,545495.694
19990119,0,37.9724,38.0558,36.8509,37.2098,533949.217
19990120,0,36.8509,37.1329,36.1331,36.2933,347644.414
19990121,0,36.5305,37.2931,36.2485,36.6907,513821.006
19990122,0,36.4536,36.4536,35.4922,35.5691,654095.489000001
19990125,0,35.8126,36.1331,35.4088,35.4922,688579.192
19990126,0,35.4088,35.7293,35.2871,35.2871,747248.017
19990127,0,35.4922,35.7293,34.6078,34.6462,766752.372
19990128,0,34.8514,35.05,34.5693,34.6462,1255607.557
19990129,0,34.3707,34.6078,34.1271,34.4091,423789.049
19990201,0,34.5693,34.5693,34.0502,34.1271,444853.699
19990202,0,34.1656,34.4476,34.1271,34.2104,1199279.712
19990203,0,34.2104,34.2873,33.9285,33.9669,513976.867
19990204,0,34.1656,34.8898,33.9669,34.0887,2267957.937
19990205,0,34.1656,35.7293,34.0502,35.0116,1682673.458
19990208,0,35.4088,35.4088,34.9667,35.0885,505083.063
19990209,0,35.1717,35.2486,34.6911,34.8064,588873.474
19990210,0,35.05,35.5307,34.5693,34.768,619299.979
19990211,0,34.8514,35.6581,34.8514,35.4581,780451.923
19990212,0,35.174,35.6581,35.0127,35.1354,556403.04
19990216,0,35.3354,35.3742,33.6444,34.3285,697866.878
19990217,0,34.5287,34.8126,33.5218,33.5993,862416.73
19990218,0,33.7606,34.206,32.7538,32.7926,1306176.068
19990219,0,32.8377,33.3992,32.4698,32.7151,1027276.964
19990222,0,32.5924,33.8058,32.5924,33.1153,600407.099
19990223,0,33.3218,34.0059,33.1153,33.8446,818257.959
19990224,0,33.3992,34.6126,33.3218,33.7606,781071.283
19990225,0,33.6832,33.8832,33.3218,33.5993,553923.909
19990226,0,33.8832,33.8832,33.3218,33.4832,527118.818
19990301,0,33.722,33.722,32.9539,33.2766,432293.064
19990302,0,33.1604,33.3992,33.0378,33.2379,622564.138
19990303,0,33.0765,33.1604,32.4312,32.7538,575925.99
19990304,0,33.0765,33.5218,32.7926,33.5218,524174.584
19990305,0,33.6444,34.4512,33.6444,34.4061,460802.633
19990308,0,34.4061,34.4899,33.722,34.0446,629227.082
19990309,0,33.9672,34.3673,33.8832,33.9672,395261.528
19990310,0,34.3673,34.6126,33.6444,34.6126,417108.432
19990311,0,34.8514,34.8514,33.3218,33.5218,627676.819
19990312,0,33.5606,34.69,33.5606,34.1673,795945.839999999
19990315,0,34.3673,34.774,34.0059,34.2447,430433.683
19990316,0,34.1673,34.69,33.8058,33.922,515187.861
19990317,0,33.2379,33.2379,32.4698,32.9539,1032855.704
19990318,0,33.2379,33.5993,32.9991,33.5218,675554.787
19990319,0,33.1153,33.3218,32.3537,32.7538,980483.081
19990322,0,32.9991,33.0765,32.7151,32.9539,492411.104
19990323,0,33.0378,33.1991,31.9471,32.0697,951664.053
19990324,0,31.9471,32.4312,31.8696,32.0697,2002803.415
19990325,0,32.031,33.0765,31.9858,32.9152,768830.076000001
19990326,0,32.8377,39.2078,32.5538,32.6312,478156.131
19990329,0,32.6312,33.722,32.4698,33.5606,485438.759
19990330,0,33.4832,33.722,32.9539,33.5606,562600.89
19990331,0,34.4512,34.4899,33.0378,33.1153,791142.829
19990401,0,32.9539,33.1153,32.231,32.2698,1101650.388
19990405,0,32.1084,33.4832,32.1084,32.8765,1015966.498
19990406,0,32.515,32.7538,32.1084,32.1471,631395.584
19990407,0,32.1084,32.1924,31.3016,32.1924,864276.127
19990408,0,32.1084,32.6764,32.1084,32.4312,844443.827
19990409,0,32.2698,32.2698,30.9402,30.979,778591.973
19990412,0,31.463,31.9083,31.179,31.7857,1250705.559
19990413,0,31.8245,32.8377,31.7857,32.7926,700500.642
19990414,0,32.9539,35.3354,32.2698,34.8126,970739.040999998
19990415,0,35.8195,38.969,35.8195,38.2009,2559211.372
19990416,0,38.1623,38.1623,37.3555,37.8395,1372646.391
19990419,0,38.3236,40.8213,38.3236,40.2146,2055638.556
19990420,0,40.0145,40.1372,38.7237,39.0077,1541379.952
19990421,0,38.8851,38.969,37.917,38.4397,459253.255
19990422,0,38.485,38.485,37.3555,37.3555,611717.872
19990423,0,37.4717,38.6011,37.4329,38.3236,529752.684
19990426,0,38.2784,38.8851,38.0783,38.1171,573446.959
19990427,0,38.3623,39.0464,38.0009,38.4011,576235.759
19990428,0,38.969,40.8213,38.8464,39.8532,1107382.527
19990429,0,41.1439,42.1121,40.9827,41.9894,1333445.471
19990430,0,42.1959,42.396,41.3441,41.7894,1096537.609
19990503,0,41.7506,44.2935,41.628,44.0096,997063.033000001
19990504,0,44.1322,44.1322,42.8414,43.0027,899293.484
19990505,0,43.0027,43.4029,42.9576,43.3641,1236915.617
19990506,0,43.2469,45.1097,42.9223,44.9863,1076016.794
19990507,0,44.7072,45.0707,44.2205,45.0318,754014.349
19990510,0,44.9474,45.0707,44.2205,44.7851,775429.96
19990511,0,44.7072,44.7851,44.3372,44.4995,834130.125
19990512,0,44.7462,44.9084,43.7531,44.8695,1053832.44
19990513,0,44.8695,45.3952,44.5449,45.2719,701476.48
19990514,0,45.0707,45.921,44.9084,45.0318,768188.380999999
19990517,0,45.0318,45.0318,43.3248,43.9348,886513.704
19990518,0,43.8505,43.8959,42.5134,42.8379,956922.998999999
19990519,0,42.8379,43.1625,42.1499,42.3512,643700.669
19990520,0,42.3512,42.3901,41.4165,41.5398,493791.509
19990521,0,41.3776,41.5788,41.053,41.3386,680985.031
19990524,0,41.2542,42.6756,41.1763,41.2997,554186.475
19990525,0,41.2997,41.9876,41.2153,41.2153,486241.877
19990526,0,41.053,41.053,39.8393,40.4883,408437.146
19990527,0,40.3261,40.3261,39.1902,39.3914,581148.421000001
19990528,0,39.3914,39.677,39.2681,39.3525,334946.214
19990601,0,39.2291,41.1763,39.028,41.1763,816565.695
19990602,0,41.1374,41.2153,40.5273,40.7285,480849.726
19990603,0,40.5273,41.1763,40.5273,40.9297,350198.927
19990604,0,40.8518,41.6242,40.8129,41.6242,257295.178
19990607,0,41.702,42.1499,40.8907,41.2153,288571.209
19990608,0,41.2153,41.2153,40.4883,40.8518,206914.768
19990609,0,40.6896,40.7675,39.5537,39.716,261763.358
19990610,0,39.716,40.2417,39.677,40.0794,413059.139
19990611,0,40.1638,40.9297,39.8783,40.0016,390102.963
19990614,0,40.1638,41.8254,40.1638,41.702,347579.774
19990615,0,41.3776,42.111,41.3776,41.741,293193.487
19990616,0,41.702,41.702,41.014,41.5398,156225.988
19990617,0,41.3776,41.3776,40.8907,41.1763,232644.413
19990618,0,40.9751,41.2997,40.8129,41.2153,431701.424
19990621,0,41.053,41.1763,40.2027,40.5273,189967.112
19990622,0,40.365,40.4429,39.8393,40.1183,216929.31
19990623,0,39.7549,41.5788,39.5926,41.5788,572828.83
19990624,0,41.741,41.9876,40.0404,40.1183,498567.67
19990625,0,39.7549,40.4429,39.7549,40.0016,296120.883
19990628,0,40.1638,40.404,39.9561,40.0016,431239.383000001
19990629,0,39.7549,39.7549,39.3914,39.5147,381012.782
19990630,0,39.2681,39.2681,38.2945,38.4568,1119927.894
19990701,0,38.3789,39.1902,38.3334,39.0669,656334.512
19990702,0,38.9826,40.0016,38.9826,39.4693,268542.53
19990706,0,39.3914,39.4304,38.8657,38.8657,468370.078
19990707,0,39.3525,39.3525,38.658,38.9436,421224.885
19990708,0,38.8203,39.3914,38.8203,39.0669,765877.16
19990709,0,39.2681,40.2417,39.2681,39.8393,824885.723999999
19990712,0,39.5147,39.5147,38.9436,39.307,302129.381
19990713,0,39.2681,39.5537,39.1447,39.2291,411672.484
19990714,0,39.028,39.1447,38.2945,38.4568,308320.2
19990715,0,38.9436,39.677,38.9436,39.1058,816161.267
19990716,0,39.4304,39.9172,39.2681,39.8393,1253659.77
19990719,0,39.5926,39.6316,38.9436,39.3914,391951.747
19990720,0,39.5926,39.6316,39.1058,39.1058,225402.993
19990721,0,39.0669,39.5537,38.7813,38.8657,352510.034
19990722,0,38.7034,39.8783,38.3789,39.7549,611346.203
19990723,0,39.6316,39.677,38.2945,38.4178,475611.468
19990726,0,38.5801,39.1058,38.4957,39.028,378239.468
19990727,0,39.0669,39.4304,38.9826,39.1058,476381.801
19990728,0,38.7813,39.4304,38.619,39.3525,666501.732
19990729,0,38.9436,39.028,38.4957,38.8657,855083.879
19990730,0,38.7034,38.9047,38.5801,38.658,597787.876
19990802,0,39.1902,40.0404,39.1058,39.7549,523218.622
19990803,0,39.5147,40.1638,39.1902,39.716,515052.914
19990804,0,39.5926,40.1183,39.5537,39.9172,1646536.033
19990805,0,39.9561,40.5273,39.7549,40.3261,617046.471
19990806,0,40.3261,41.0183,40.3261,40.9792,897322.368000001
19990809,0,41.064,41.6714,40.4893,40.9008,750014.555000001
19990810,0,40.7375,40.7375,40.0845,40.1629,770381.267000001
19990811,0,40.1629,41.3906,39.9603,41.2273,522008.85
19990812,0,41.1816,41.2665,40.4502,40.5743,331978.628
19990813,0,40.6526,40.855,40.3653,40.6918,343463.214
19990816,0,40.1629,40.7375,40.0845,40.6135,232446.599
19990817,0,40.4893,41.1816,40.0387,41.1425,329528.539
19990818,0,41.1425,41.2665,41.064,41.1425,510830.403
19990819,0,41.1032,41.3906,40.94,41.3449,427682.811
19990820,0,41.5539,42.775,41.5082,42.775,718010.554000001
19990823,0,42.8992,43.7546,42.4877,43.7546,1082452.342
19990824,0,43.4281,43.4281,41.8346,42.2461,614191.118000001
19990825,0,42.2069,42.2069,41.7171,41.7955,474999.066
19990826,0,41.3906,41.5082,40.8159,41.1032,402110.652
19990827,0,41.064,41.4689,41.0183,41.1425,330753.741
19990830,0,40.94,40.94,40.0387,40.1236,458002.107
19990831,0,39.9996,40.0845,39.2224,39.2682,489545.871
19990901,0,39.1833,40.0387,39.0592,39.9212,533799.763
19990902,0,39.7972,40.855,39.5946,40.7767,516802.667
19990903,0,40.9008,41.7563,40.9008,41.3057,618019.179000001
19990907,0,41.2665,41.3906,41.064,41.2665,497662.335
19990908,0,41.1425,41.4689,40.9008,41.4689,389554.38
19990909,0,41.2273,41.2273,40.7114,41.064,250055.916
19990910,0,41.2665,41.9587,41.064,41.8346,404714.073
19990913,0,41.7955,42.3245,41.6322,42.2069,267818.591
19990914,0,41.6322,41.7955,41.064,41.3057,410073.221
19990915,0,41.3906,41.7563,41.1425,41.1425,471017.797
19990916,0,40.7375,41.0183,40.202,40.7767,311153.3
19990917,0,40.9792,41.4298,40.5743,40.6526,505011.958
19990920,0,41.1425,41.4689,40.8159,41.1816,384195.021
19990921,0,40.8159,41.064,39.5946,40.3261,499805.514000001
19990922,0,40.2477,40.2477,39.3857,39.549,401804.725
19990923,0,39.549,39.673,38.6543,38.7783,776964.781000001
19990924,0,38.7783,38.8567,37.962,38.1645,462289.621
19990927,0,38.2037,38.8176,38.2037,38.5302,594284.709
19990928,0,38.0404,38.1253,37.2241,37.6355,629810.284000001
19990929,0,37.5899,38.4062,37.3482,38.0404,699176.402000001
19990930,0,37.962,39.7579,37.838,39.144,533952.787000001
19991001,0,38.9416,39.1833,38.4519,39.02,386491.895
19991004,0,39.0592,39.9603,39.02,39.8363,284203.279
19991005,0,39.7579,39.8755,38.6151,39.0592,308856.592
19991006,0,38.6935,39.1833,38.2886,38.6543,534105.922
19991007,0,38.7326,40.3261,38.7326,40.2477,319269.207
19991008,0,40.2477,41.064,40.0845,40.6135,339175.67
19991011,0,40.4502,40.4893,39.6339,39.7579,136435.943
19991012,0,39.549,39.6339,39.02,39.1833,387563.91
19991013,0,38.8567,39.3465,38.1253,38.1645,307784.618
19991014,0,38.0012,38.491,37.0609,38.0012,560596.892
19991015,0,37.962,37.962,36.9367,37.1849,417882.915
19991018,0,37.2241,38.1645,36.9825,38.1253,394760.708
19991019,0,38.3277,38.4062,37.4266,37.6355,252659.138
19991020,0,37.5506,37.6747,36.8192,37.2241,505523.685
19991021,0,36.9825,37.4723,36.571,37.2633,727088.807
19991022,0,36.7343,37.962,36.4927,37.4723,534871.578
19991025,0,37.2241,38.2037,37.2241,38.0404,477602.438000001
19991026,0,37.962,39.0592,37.962,38.3277,697032.756000001
19991027,0,38.0404,38.7783,38.0404,38.6151,328303.701
19991028,0,39.1833,39.2682,38.6151,39.1049,440392.346000001
19991029,0,39.2682,39.7972,39.0592,39.6339,367963.461
19991101,0,39.6339,39.6339,38.7783,39.0592,234896.431
19991102,0,38.6935,39.7579,38.491,38.7326,706986.01
19991103,0,38.5302,39.1049,38.3277,38.9808,375007.274
19991104,0,39.1049,39.7579,38.9808,39.3857,327691.073
19991105,0,39.5098,39.5098,39.2224,39.3073,384348.061
19991108,0,39.3531,39.3531,38.4462,38.5316,338557.908
19991109,0,39.1034,39.1888,38.2818,38.571,455417.497
19991110,0,38.4067,38.8142,38.2818,38.7353,417224.94
19991111,0,38.4855,38.939,38.4855,38.8602,387857.964
19991112,0,39.0245,39.3531,38.7747,38.9785,707243.887
19991115,0,38.9785,39.8,38.8602,39.5174,612903.852
19991116,0,39.5174,39.9249,39.1034,39.4319,410377.997
19991117,0,39.3925,39.8854,39.1034,39.7606,608795.74
19991118,0,39.9249,39.9249,39.1888,39.4319,378880.576
19991119,0,39.4319,39.5174,38.939,39.4714,310864.458
19991122,0,39.1034,39.3071,38.7353,38.9785,401400.158
19991123,0,39.1034,39.1034,37.8283,38.0781,719112.006
19991124,0,38.2818,38.8602,38.0386,38.4462,226719.668
19991126,0,38.2818,38.3673,37.8744,37.9927,102252.073
19991129,0,37.6246,37.789,37.4209,37.5853,565429.688
19991130,0,37.4603,38.7747,37.4603,38.4462,423007.092
19991201,0,38.1175,38.4855,37.7495,37.9533,282258.413999999
19991202,0,37.6246,39.2282,37.6246,38.7747,583080.183
19991203,0,38.7747,40.0103,38.7747,39.6817,525867.952
19991206,0,39.2677,39.4319,38.3673,38.3673,361077.779
19991207,0,38.2424,38.3213,37.4603,37.4998,474741.845
19991208,0,37.6246,37.7101,36.9281,37.6641,430006.569
19991209,0,37.5853,37.6246,36.7637,36.8886,559799.662
19991210,0,37.0069,37.5853,36.4746,37.4603,622033.572
19991213,0,37.6246,38.2424,37.5458,37.7495,358947.36
19991214,0,37.7495,38.8996,37.6641,38.6958,523433.363
19991215,0,38.6105,39.4319,38.2818,38.7747,622946.187
19991216,0,38.7747,38.939,38.4855,38.8996,437158.113
19991217,0,39.1034,39.3531,38.571,38.939,836428.462
19991220,0,39.3071,39.3071,38.203,38.3213,430615.23
19991221,0,38.157,38.6958,37.9533,38.0386,633293.448
19991222,0,38.1175,38.7353,38.0386,38.203,292909.576
19991223,0,38.2424,39.5962,38.203,38.9785,420116.241
19991227,0,39.0245,39.6357,38.6499,39.3925,505174.004
19991228,0,39.2282,40.7464,39.2282,40.5032,486153.898
19991229,0,40.4177,41.3641,40.2929,41.0356,423919.989
19991230,0,40.9106,41.4036,40.6215,40.9106,313603.422
19991231,0,40.7464,41.1144,40.7069,41.1144,213633.751
20000103,0,41.1604,41.1604,39.1888,39.3925,813756.399999999
20000104,0,39.2677,39.3925,37.9927,38.0781,876294.531999999
20000105,0,38.1175,39.5962,38.1175,39.3925,1190506.444
20000106,0,39.5174,42.35,39.5174,41.4036,1530738.605
20000107,0,41.6928,42.3893,41.5678,42.1002,1182898.684
20000110,0,41.9819,41.9819,40.6215,40.7858,842362.732
20000111,0,40.6675,40.8318,40.0497,40.6675,713938.864999999
20000112,0,40.6675,41.8176,40.6675,41.2393,864577.901
20000113,0,41.4036,42.7574,41.3247,42.35,1230829.18
20000114,0,42.225,42.3893,40.9961,41.3641,1328516.353
20000118,0,40.8318,41.2393,40.4177,40.4177,1200397.508
20000119,0,40.0103,40.3784,39.0245,39.5568,1163124.562
20000120,0,39.8,39.8,37.789,37.9927,641822.803
20000121,0,38.203,38.9785,37.5458,38.571,1137402.61
20000124,0,38.8602,39.1034,37.8744,38.157,826385.535
20000125,0,38.2818,38.6499,36.4746,37.2172,1268564.984
20000126,0,37.2961,38.203,37.1318,37.7495,1290019.852
20000127,0,38.1175,38.6499,37.9927,38.2424,1138010.884
20000128,0,38.0781,38.0781,35.9817,37.2172,797170.641999999
20000131,0,37.2961,37.4209,36.0211,36.1065,720938.037
20000201,0,36.3497,36.9674,36.2314,36.8031,867012.414
20000202,0,36.6389,36.6783,35.9028,36.1854,384814.796
20000203,0,36.1854,36.3102,35.5742,35.9422,462264.57
20000204,0,36.1854,36.1854,35.4099,35.5282,573189.925
20000207,0,35.5742,35.5742,34.1743,34.4635,989806.416999999
20000208,0,34.503,34.6673,33.9312,34.0495,622338.115
20000209,0,33.8458,34.0955,33.5171,33.5566,882076.825
20000210,0,33.8458,33.9312,32.9454,33.1886,750913.681999999
20000211,0,33.3529,33.4383,31.6704,31.9596,1050822.404
20000214,0,32.2882,33.274,31.7492,33.1097,1128729.352
20000215,0,33.274,34.7067,33.1097,34.4635,948875.453999999
20000216,0,35.1602,35.1602,34.2993,34.7527,797779.313
20000217,0,35.0974,35.4285,34.2696,34.7663,677121.716
20000218,0,34.6405,34.6405,33.5279,33.9385,657037.447000001
20000222,0,33.8127,35.4682,33.8127,34.8524,512371.375000001
20000223,0,34.4749,35.6338,34.1902,35.3026,841569.686
20000224,0,35.1835,35.1835,32.9055,33.316,958752.398999999
20000225,0,33.316,33.316,32.1572,32.4882,998316.690999999
20000228,0,32.6538,33.2763,32.2035,32.4882,1158687.777
20000229,0,32.4485,32.7001,31.9121,32.6538,930664.841
20000301,0,32.5347,32.5347,31.4949,31.9916,595123.980000001
20000302,0,31.6207,31.9121,30.8791,31.2499,424635.598
20000303,0,31.2499,33.5279,31.1241,32.4485,1406038.882
20000306,0,31.9519,32.1174,30.9983,31.7863,674101.524000001
20000307,0,31.2897,31.5413,30.4618,30.8791,647373.134
20000308,0,30.4618,30.9188,30.2169,30.4222,856670.74
20000309,0,30.2169,30.3824,29.3891,30.1705,695997.554999999
20000310,0,30.2169,31.2499,29.8857,30.793,577154.106000001
20000313,0,30.4618,30.9188,29.8857,30.3824,527623.291
20000314,0,30.548,31.0844,30.1705,30.4618,474468.509000001
20000315,0,30.1308,33.3624,29.9652,33.1505,1066723.253
20000316,0,33.071,34.9319,33.0313,34.8921,1036370.571
20000317,0,33.9385,34.1438,32.8657,33.2366,877661.024
20000320,0,33.2763,34.4351,33.2763,33.773,563110.288000001
20000321,0,33.773,35.0179,33.5279,34.6007,700528.172999999
20000322,0,34.3954,34.3954,32.7796,33.0313,618983.422000001
20000323,0,32.4485,33.6471,32.2433,33.3624,690410.275
20000324,0,33.5279,33.773,33.1505,33.4816,672742.483000001
20000327,0,33.2763,33.4021,32.6141,32.8194,395490.893000001
20000328,0,32.4485,33.8988,32.4485,32.8657,661869.656
20000329,0,32.1174,33.8988,32.1174,33.6935,583496.644000001
20000330,0,33.7332,35.7199,33.6935,35.1835,791887.895
20000331,0,35.3491,35.3491,34.1438,34.561,1029424.175
20000403,0,34.0246,35.1371,34.0246,35.1371,792039.146
20000404,0,35.594,36.839,35.0974,35.6338,1343068.128
20000405,0,35.7994,36.3424,34.6007,34.9319,667004.333000001
20000406,0,35.1835,35.594,34.6868,34.9716,692675.408000001
20000407,0,34.806,35.3491,34.4351,34.4749,504217.097000001
20000410,0,33.859,34.9319,33.773,34.3557,1001487.588
20000411,0,34.5212,36.7132,34.4351,35.7994,840814.644999999
20000412,0,36.0113,38.0774,36.0113,37.8323,1360132.896
20000413,0,38.4945,38.4945,37.0443,37.1237,1078048.575
20000414,0,37.2495,37.2495,35.0974,35.3026,779505.236
20000417,0,34.8524,35.7199,34.6405,35.1371,656131.599000001
20000418,0,35.0179,35.3887,33.6935,33.859,716081.836
20000419,0,34.1902,34.1902,33.4418,33.6471,642114.931999999
20000420,0,34.0246,35.6801,34.0246,35.0577,920864.093999999
20000424,0,35.0577,36.839,35.0577,35.8854,961621.536
20000425,0,35.594,37.2099,35.4682,37.0443,923416.578
20000426,0,37.0443,37.0443,35.6338,36.0908,546952.550000001
20000427,0,36.1768,36.296,35.2629,35.4682,705662.176
20000428,0,35.3491,36.839,35.3491,36.0908,487153.006
20000501,0,35.594,36.2562,35.4285,36.0113,424786.579
20000502,0,35.9252,36.5874,35.7994,36.0113,901369.909999999
20000503,0,35.3491,35.5543,34.8524,34.8524,768330.995
20000504,0,34.9319,35.9252,34.8921,35.3887,469636.149000001
20000505,0,35.1371,36.8788,35.0577,36.5079,671987.563000001
20000508,0,36.3145,37.2283,36.2745,36.5212,522895.565000001
20000509,0,36.608,37.6086,36.5212,37.0215,826468.604
20000510,0,37.0215,37.7753,36.3145,36.4813,475073.436000001
20000511,0,36.688,37.6486,36.648,37.275,322612.262
20000512,0,37.2283,37.275,36.2277,36.8148,460681.729000001
20000515,0,36.608,38.1889,36.608,37.8153,466378.401000001
20000516,0,37.8954,37.8954,36.8948,37.7286,528292.501000001
20000517,0,37.6086,37.6086,36.8547,37.0616,284984.080000001
20000518,0,36.8547,37.3151,36.608,36.9816,502957.228000001
20000519,0,36.1878,36.8547,36.1878,36.7747,393220.867000001
20000522,0,36.688,37.4418,36.5212,36.7747,358291.438000001
20000523,0,36.9816,36.9816,35.7742,36.3145,554227.436000001
20000524,0,36.3544,37.1883,36.3544,36.688,748514.006999999
20000525,0,35.6875,35.7274,33.5195,34.1465,1364206
20000526,0,34.2733,34.5201,33.5596,33.9798,467277.973000001
20000530,0,34.2266,34.6869,33.7263,34.6068,484068.265000001
20000531,0,33.6863,34.0198,33.0593,33.1059,768602.39
20000601,0,33.1059,33.2727,32.0186,33.226,1341118.742
20000602,0,33.0192,33.6863,32.7724,33.3127,1134988.741
20000605,0,33.3528,33.5596,32.4389,32.6857,565020.99
20000606,0,32.6857,32.7257,32.1054,32.2722,650321.685
20000607,0,32.5189,32.6057,31.9786,32.1453,667561.365000001
20000608,0,32.0587,32.3522,31.8519,31.9386,615241.866
20000609,0,31.9786,32.0186,31.7719,31.9786,644924.405
20000612,0,32.0186,32.6456,31.9786,32.4389,730224.888
20000613,0,32.6057,32.7257,31.3516,31.6851,801283.430000001
20000614,0,31.3516,32.3121,31.3516,32.1054,763355.643000001
20000615,0,32.0186,32.0587,31.018,31.3115,522295.918000001
20000616,0,30.8913,31.3115,30.7713,31.1048,727825.997
20000619,0,30.938,31.1048,29.5172,29.6839,1038145.484
20000620,0,29.6839,29.8907,28.3499,28.8901,1310836.599
20000621,0,29.3505,29.4371,27.8496,28.103,1681719.894
20000622,0,28.103,29.0569,27.7228,28.6433,1218340.565
20000623,0,28.6834,28.8901,28.2698,28.8101,1063330.933
20000626,0,28.8901,28.8901,28.3499,28.7233,1080570.783
20000627,0,28.6834,30.0174,28.4365,29.8107,1889049.927
20000628,0,29.8107,30.8113,29.0169,30.1842,2022921.685
20000629,0,30.1842,30.7245,29.4772,30.0575,1077872.185
20000630,0,30.0575,30.1442,29.3104,29.6039,1064830.003
20000703,0,29.7239,30.6845,29.6839,30.6445,535938.177
20000705,0,30.1842,30.6445,29.6039,30.0174,992571.798999999
20000706,0,29.8507,29.8507,29.2236,29.2704,1074124.821
20000707,0,29.4772,29.8107,29.0169,29.0169,1499426.129
20000710,0,29.0169,29.6839,28.8901,29.0169,1030949.608
20000711,0,29.0569,30.311,29.0569,30.311,711635.8
20000712,0,30.2242,30.6045,29.6839,29.9374,620638.463000001
20000713,0,29.8507,31.018,29.8507,30.6845,690497.781
20000714,0,30.7245,30.8913,29.8107,30.1842,631282.614
20000717,0,30.1042,30.1442,29.1837,29.3104,974282.646
20000718,0,29.2704,29.4371,28.9769,29.1437,736820.957
20000719,0,28.9368,29.3505,28.3499,28.4766,635074.476999999
20000720,0,27.9362,28.6033,27.7228,28.103,951818.530999999
20000721,0,28.2698,28.7233,28.1431,28.4766,1127493.49
20000724,0,28.5566,28.6033,28.0163,28.223,829316.947
20000725,0,28.3499,28.6834,27.8496,28.3499,1046390.506
20000726,0,28.223,28.3499,27.6428,27.7228,773849.423
20000727,0,27.6828,28.2698,27.516,27.6027,946998.448999999
20000728,0,27.6027,27.6428,27.1024,27.1024,787191.502
20000731,0,27.3092,27.516,27.1024,27.1425,1271409.954
20000801,0,27.3092,27.3493,26.849,27.1825,1142185.279
20000802,0,27.1425,27.516,26.9757,27.3493,987774.877999999
20000803,0,27.3493,27.8896,27.0157,27.1825,932906.779999999
20000804,0,27.1825,27.2692,26.7222,26.9757,796036.496
20000807,0,26.8089,28.5566,26.7689,28.1831,1162273.349
20000808,0,28.2845,28.4529,27.9881,28.4529,680684.178000001
20000809,0,28.2845,29.0454,28.2441,28.8771,1172190.442
20000810,0,28.372,28.4932,27.6985,27.7794,833333.253
20000811,0,27.8198,28.7491,27.7794,28.6616,672071.758
20000814,0,28.5403,28.6616,27.9073,28.5403,460620.171
20000815,0,28.4932,29.2947,28.3249,29.1263,630494.322
20000816,0,29.1263,29.6717,28.9983,29.335,658707.485
20000817,0,29.4226,29.8872,28.7896,28.9175,926585.956000001
20000818,0,28.6212,29.0859,28.6212,28.9983,502791.31
20000821,0,28.8299,28.958,28.6212,28.6616,741120.171
20000822,0,28.4932,28.8771,28.4932,28.8771,514522.468
20000823,0,28.6212,28.7896,28.372,28.4932,565306.549
20000824,0,28.1162,28.6212,28.1162,28.4124,582828.473
20000825,0,28.2441,29.0454,28.1565,28.7491,302922.242
20000828,0,29.2138,29.2138,28.7087,28.7896,337520.863
20000829,0,28.6616,28.6616,28.2036,28.2845,560851.779
20000830,0,28.2441,28.2845,27.6111,27.7794,546745.058999999
20000831,0,27.7794,28.2036,27.2744,27.3618,643115.909
20000901,0,27.4427,27.4427,27.1463,27.2744,819672.001000001
20000905,0,27.2744,27.6111,27.1935,27.4427,1180951.476
20000906,0,27.5706,28.5403,27.4831,28.0353,775570.063
20000907,0,27.5302,27.5302,26.978,27.2339,1295289.988
20000908,0,27.2744,27.4427,26.6009,26.6413,795319.545
20000911,0,26.52,27.2339,26.52,26.8096,785519.268
20000912,0,26.7288,27.106,26.7288,26.9376,714985.612000001
20000913,0,26.9376,27.4427,25.5907,26.7288,1240942.374
20000914,0,26.7693,26.8972,26.3045,26.3517,853379.682
20000915,0,26.3921,26.3921,25.6782,25.6782,834669.191000001
20000918,0,25.6782,25.7187,24.8364,25.3819,1013008.213
20000919,0,25.2944,25.2944,24.5401,24.8364,970836.574000002
20000920,0,24.8364,24.9173,24.2439,24.4122,1098836.189
20000921,0,24.5806,25.1731,24.4997,24.749,855309.956000001
20000922,0,24.8364,25.5907,24.7085,25.0048,627524.41
20000925,0,25.254,25.254,24.6209,24.6209,479181.433
20000926,0,24.5806,24.8364,24.3313,24.3718,921537.067000001
20000927,0,24.3313,25.4627,24.3313,25.2944,1051318.842
20000928,0,25.3819,26.1833,25.0048,26.1362,816256.826
20000929,0,25.9275,27.2744,25.8466,26.6413,871347.337
20001002,0,26.6009,26.7288,26.1362,26.6009,705630.673
20001003,0,26.4729,27.7794,26.2237,27.106,945592.745000001
20001004,0,26.6413,28.372,26.6413,27.6985,1293656.909
20001005,0,28.1162,28.1162,27.106,27.2339,618317.903
20001006,0,27.106,28.3249,27.106,27.1935,531747.133999999
20001009,0,27.3618,28.3249,27.3147,27.4831,645194.999
20001010,0,27.4427,27.9881,27.0251,27.2339,750029.587
20001011,0,26.8972,27.739,26.6884,26.7288,1008702.55
20001012,0,26.6009,26.6413,25.5907,25.7187,1022659.979
20001013,0,25.5907,25.7591,25.126,25.5907,783885.785000001
20001016,0,25.5907,26.0554,25.3819,25.9678,1590044.008
20001017,0,26.2642,26.7288,25.254,25.4224,675487.2
20001018,0,25.3819,25.7591,25.2944,25.6311,594415.336
20001019,0,25.6782,26.0149,25.126,25.9275,804826.443000001
20001020,0,25.8466,26.0149,25.2136,25.2944,903124.42
20001023,0,25.254,25.7591,25.0452,25.3819,850261.613
20001024,0,25.3819,26.4326,25.3415,26.3517,1299299.188
20001025,0,25.7591,25.9275,25.2944,25.5099,757751.166
20001026,0,25.6311,26.7288,25.5503,26.4326,1047309.358
20001027,0,26.2642,26.8972,25.6311,26.8567,650837.516
20001030,0,26.7693,29.5505,26.7693,29.5034,1413637.717
20001031,0,29.5034,30.2644,29.2542,30.0556,1286231.876
20001101,0,30.0556,30.3923,29.3821,29.6717,1070919.5
20001102,0,29.8872,30.6416,29.6314,30.2644,1221786.79
20001103,0,30.1365,30.6416,29.5034,30.6011,585649.657
20001106,0,30.4328,30.6819,30.096,30.3452,405381.083
20001107,0,30.3452,30.7695,30.1365,30.4732,341826.968
20001108,0,30.5343,31.3429,29.984,31.0031,595632.228999999
20001109,0,30.8741,30.9148,29.7666,30.6634,788730.578999999
20001110,0,30.4053,30.745,29.8141,30.1063,471560.582999999
20001113,0,30.2354,30.8332,29.984,30.1946,588714.655
20001114,0,30.0247,30.6159,29.8548,30.5343,478036.506999999
20001115,0,30.6634,31.3429,30.5751,30.9148,526752.802
20001116,0,30.8332,30.8332,29.2162,29.7257,1014355.394
20001117,0,29.685,30.446,29.3045,29.4268,811249.106
20001120,0,28.9172,29.0463,28.0679,28.4552,2050640.493
20001121,0,28.496,28.795,28.1155,28.3669,995516.514
20001122,0,28.2853,28.2853,27.7282,28.1562,586948.562
20001124,0,28.2853,28.5368,28.2378,28.3669,246230.105
20001127,0,28.2378,28.3262,27.4768,28.197,794765.175999999
20001128,0,28.0272,28.3669,27.6466,27.8981,670987.612999999
20001129,0,28.0272,28.3262,27.9456,28.197,806245.036
20001130,0,28.3262,28.5368,27.9456,28.2378,845836.054
20001201,0,28.2378,29.3453,28.2378,29.2162,867618.460999999
20001204,0,29.2162,30.5751,29.1347,30.3237,952099.098999999
20001205,0,30.1538,30.9556,29.8141,30.9148,1421451.751
20001206,0,30.5751,30.7042,29.7257,29.984,633015.566
20001207,0,30.0247,30.0247,28.197,28.2853,1567010.942
20001208,0,28.795,29.8956,28.795,29.685,834649.876999999
20001211,0,29.5151,29.5559,28.8357,29.2569,586948.393
20001212,0,28.9172,29.984,28.8357,28.8357,787258.824
20001213,0,29.1347,29.1347,28.0272,28.0679,1425867.392
20001214,0,28.1562,28.9172,27.3885,28.5775,1596447.316
20001215,0,28.8357,28.9172,28.0679,28.1562,1108991.267
20001218,0,28.3262,29.2162,28.2853,28.6659,875860.715
20001219,0,28.7066,29.984,28.3262,29.5966,714994.11
20001220,0,30.0654,30.1538,28.5368,28.8357,1068663.914
20001221,0,28.8765,29.6442,28.795,29.4744,980504.687
20001222,0,29.4744,30.745,29.1754,30.7042,757823.193
20001226,0,30.5751,30.7042,29.7257,30.6159,588420.417
20001227,0,30.6159,31.8932,29.984,31.7641,934143.150999999
20001228,0,31.5942,32.2329,30.5751,32.1922,946506.445999999
20001229,0,32.2329,32.2329,31.3429,31.5127,600783.64
20010102,0,31.7641,31.8525,30.745,30.7857,1582612.383
20010103,0,30.8741,31.1254,30.0654,31.0439,1211280.868
20010104,0,32.1922,33.2113,31.6826,33.1638,2219160.243
20010105,0,33.2929,33.422,31.8048,32.6135,1583936.643
20010108,0,32.4435,33.2929,32.4435,32.9939,920455.662999999
20010109,0,32.362,32.4028,31.3836,31.7641,1242482.618
20010110,0,31.0847,31.5535,30.1946,31.3836,1422629.11
20010111,0,31.6826,31.6826,30.0247,30.5343,1247780.377
20010112,0,30.7042,30.7042,29.7666,30.446,639491.389
20010116,0,30.1538,31.2545,29.7257,31.173,654061.833
20010117,0,31.173,31.3429,30.1946,30.5343,917239.502000001
20010118,0,30.7042,30.7857,29.8956,30.5751,803026.003999999
20010119,0,30.3644,30.3644,29.4744,29.8548,815516.721
20010122,0,29.8548,30.446,29.2162,30.0654,985802.535
20010123,0,30.1538,30.9148,30.1538,30.2761,498347.078
20010124,0,30.0654,30.745,30.0247,30.6159,685264.02
20010125,0,30.5751,31.3836,30.446,31.2138,1006996.739
20010126,0,31.4244,31.5127,30.446,30.6634,963726.313999999
20010129,0,30.5411,31.1458,30.3644,30.8469,581061.551
20010130,0,31.0507,31.2206,30.3576,31.1186,1937901.52
20010131,0,31.5263,31.6282,30.9828,31.336,2339553.43
20010201,0,31.832,32.0291,31.3836,31.7233,1373618.789
20010202,0,31.7641,32.5998,31.7641,32.3892,1843855.468
20010205,0,32.2737,33.5035,32.1038,33.4967,1560241.548
20010206,0,33.4491,33.7617,33.0551,33.7549,1328288.033
20010207,0,33.6461,33.8024,33.0891,33.2385,917217.811999999
20010208,0,33.5646,33.8704,32.9532,33.7481,1506226.595
20010209,0,33.9723,34.2985,33.7005,33.7549,1342121.6
20010212,0,33.7345,34.278,33.3948,34.0335,1185082.429
20010213,0,34.0742,34.7197,34.0199,34.1014,789172.228
20010214,0,34.2441,34.6382,33.9723,34.1286,705721.766999999
20010215,0,34.1553,34.9432,34.1553,34.9364,1566783.163
20010216,0,34.8405,34.8474,33.6415,33.9841,697061.871
20010220,0,33.9841,34.6486,33.9498,34.217,812800.801
20010221,0,34.0868,34.2924,33.71,33.847,1208328.256
20010222,0,34.0183,34.6007,33.71,34.2101,1008083.031
20010223,0,34.7857,34.7857,33.2989,33.8333,842137.058000001
20010226,0,34.4294,35.1146,34.402,34.9981,793097.48
20010227,0,35.0803,35.1557,34.4979,34.8199,629194.483
20010228,0,34.909,35.3543,34.8748,35.0117,1166148.449
20010301,0,35.0803,35.3543,34.5527,35.0049,1030705.802
20010302,0,34.9775,35.9641,34.9775,35.8271,809444.210000001
20010305,0,36.1629,36.7589,36.0738,36.5739,1041359.807
20010306,0,36.5945,36.7932,36.3889,36.5877,658238.684
20010307,0,36.6219,37.6154,36.6219,37.588,1490451.331
20010308,0,37.6634,38.0265,36.5534,37.9717,2179631.318
20010309,0,37.91,37.91,37.1563,37.7456,1089524.074
20010312,0,37.6154,37.6839,37.17,37.451,1112875.629
20010313,0,37.4715,37.4715,35.4572,36.1286,1331511.365
20010314,0,35.8339,35.9573,34.6007,35.0391,1493078.059
20010315,0,34.9432,35.0803,34.5322,34.772,882127.756
20010316,0,34.1896,35.0803,34.1896,34.2581,1164543.339
20010319,0,34.0183,35.4023,34.0183,35.0117,1708501.596
20010320,0,34.6692,35.971,33.9155,34.6212,1250361.935
20010321,0,34.3267,34.3267,33.2989,33.4153,981958.147
20010322,0,33.4017,33.4017,31.2434,32.3054,1257659.243
20010323,0,31.7572,32.0245,31.1886,31.5174,2283693.646
20010326,0,31.5174,32.3396,31.3804,31.9079,1832997.349
20010327,0,32.5452,32.5452,31.5243,32.1546,1684565.721
20010328,0,31.9971,32.2231,31.0379,32.1067,891322.374
20010329,0,32.1889,32.4698,31.4626,31.7367,1293709.796
20010330,0,31.9491,31.9491,31.2228,31.586,982541.754
20010402,0,32.2643,33.0796,32.0039,32.4767,1834165.347
20010403,0,32.4493,32.4493,31.2091,31.4078,1187456.598
20010404,0,31.7915,33.6072,31.7915,32.7987,2110449.88
20010405,0,32.922,33.8196,32.922,33.6688,788135.296
20010406,0,33.6072,33.6072,32.4081,32.8877,749458.226
20010409,0,33.1619,34.2924,33.0933,33.1687,1176510.414
20010410,0,33.7443,34.8405,33.4701,34.5322,966925.383999999
20010411,0,34.4636,34.6007,33.7784,34.2444,1187603.041
20010412,0,34.2581,34.7377,33.2989,34.4157,1060333.758
20010416,0,34.2238,35.2858,33.9841,34.4157,1004288.482
20010417,0,34.306,34.6007,33.6415,34.3334,688158.902
20010418,0,34.2581,36.0327,33.9155,35.6558,1072538.078
20010419,0,36.1423,36.1491,35.1831,36.108,2330205.067
20010420,0,36.4849,36.8137,36.0806,36.2177,1559339.991
20010423,0,36.108,36.9645,35.7998,36.1423,1369749.379
20010424,0,36.1765,37.0604,36.1149,36.2725,1058144.327
20010425,0,35.7998,36.5877,35.7998,36.5808,1024721.6
20010426,0,36.5877,37.6154,36.3821,37.2386,827980.077000001
20010427,0,36.6562,37.5606,36.6562,36.8206,1473812.907
20010430,0,36.8001,36.9303,36.1491,36.4438,1380550.018
20010501,0,36.4163,36.7246,36.2177,36.3684,1306845.117
20010502,0,36.3479,37.1358,36.1834,37.033,1293563.737
20010503,0,37.0536,37.0946,36.4849,37.033,1010126.487
20010504,0,36.6562,37.8894,36.4917,37.8072,1240144.972
20010507,0,37.7456,38.3348,37.4441,37.4715,1177532.277
20010508,0,37.8718,38.1548,37.6646,37.8994,689540.002000001
20010509,0,37.5611,38.3413,37.5403,38.0099,936476.474000001
20010510,0,37.9753,38.7348,37.9062,38.507,819453.183000001
20010511,0,38.2515,38.3067,37.7406,38.2101,698084.726000001
20010514,0,38.4587,38.9074,38.1755,38.8729,954580.166
20010515,0,38.942,39.2043,38.7486,39.1353,1186165.204
20010516,0,39.156,40.8407,39.1491,40.8407,1546504.154
20010517,0,40.7717,41.255,40.53,40.7717,2137413.205
20010518,0,40.8131,40.8131,40.1226,40.7233,1032354.679
20010521,0,40.7372,41.2205,40.3919,41.0617,626973.125
20010522,0,40.9443,40.9443,40.4265,40.7372,911855.607000001
20010523,0,40.7372,40.8891,40.0536,40.1503,915766.018000001
20010524,0,39.0111,39.4943,37.9062,38.6313,2336412.224
20010525,0,38.5623,38.8729,38.4932,38.5623,952553.169000001
20010529,0,38.3206,39.0318,38.3206,38.8315,549922.932000001
20010530,0,38.8729,38.9765,38.1825,38.3136,583668.544
20010531,0,38.1135,38.7694,38.1135,38.4241,818004.952000001
20010601,0,38.217,38.217,37.2849,37.8718,1309561.12
20010604,0,37.2849,38.1272,37.2849,38.0167,1317671.992
20010605,0,38.0443,38.5277,37.133,38.2791,810908.092
20010606,0,38.0443,38.6106,38.0099,38.0996,553978.260000001
20010607,0,37.7682,38.6865,37.7544,38.2515,828577.421
20010608,0,38.1825,38.2515,37.6991,37.775,474176.249000001
20010611,0,37.8027,37.8027,37.057,37.3194,914462.337000001
20010612,0,37.3953,37.4575,36.9742,37.2987,675056.568000001
20010613,0,37.2158,37.8925,37.2158,37.492,519218.666000001
20010614,0,37.3194,37.3608,36.4287,36.484,839295.185000001
20010615,0,36.042,36.6635,36.0213,36.0213,1218028.398
20010618,0,36.0282,36.2354,35.6277,35.9177,692726.226000001
20010619,0,36.042,36.5737,36.0006,36.5254,1217448.598
20010620,0,36.5254,37.9753,36.5254,36.6772,584972.036
20010621,0,36.5599,36.6979,35.8349,36.3735,710250.714
20010622,0,36.2491,36.4425,35.4552,35.4966,737623.754
20010625,0,35.7313,35.8004,35.1099,35.3861,681139.690000001
20010626,0,35.2825,36.0628,34.8683,35.7589,829156.889000002
20010627,0,35.6623,36.194,35.5725,35.8349,698084.871
20010628,0,35.904,36.3044,35.7589,35.8004,873329.928000001
20010629,0,35.6277,36.5254,35.4966,36.2767,673173.838
20010702,0,36.1456,36.774,35.6968,36.5944,776293.643000001
20010703,0,36.2491,36.3942,35.7659,36.332,485762.721
20010705,0,36.263,36.912,36.0144,36.6428,586565.143
20010706,0,36.8154,36.8154,35.6416,35.8349,582510.115000001
20010709,0,35.752,36.553,35.752,36.477,568026.697
20010710,0,36.5944,36.7256,35.973,36.0144,555571.257000001
20010711,0,36.0075,36.5944,35.8211,36.1318,600323.933
20010712,0,36.042,37.1123,35.8694,37.0639,680270.694000001
20010713,0,36.8015,37.0847,36.332,36.5254,894909.980000001
20010716,0,36.4218,36.5944,35.9591,36.1387,826260.455000001
20010717,0,35.8349,36.3528,35.8004,36.1042,612055.394000001
20010718,0,36.0766,37.0708,35.904,36.9396,543551.696000001
20010719,0,37.4575,38.1135,37.2987,37.4506,889674.142000001
20010720,0,37.7337,37.9062,37.2089,37.6577,1102163.175
20010723,0,37.6646,37.7337,36.7877,36.836,704746.763000001
20010724,0,36.8567,36.8567,35.5656,35.7106,658401.316000001
20010725,0,35.6968,37.0432,35.6968,36.9742,643918.282000001
20010726,0,36.9189,37.1123,36.2975,37.1054,636676.65
20010727,0,37.0087,37.6991,36.7394,37.2849,747617.051000001
20010730,0,37.2918,37.423,36.2491,36.8015,741099.598000001
20010731,0,36.9052,37.9062,36.9052,37.8442,596993.043000001
20010801,0,37.7682,38.1411,37.2503,37.6301,543115.814000001
20010802,0,38.217,38.5138,37.6232,38.2584,514584.36
20010803,0,38.217,38.3067,37.9338,38.2584,409871.478
20010806,0,38.0099,38.4241,38.0099,38.1065,396402.11
20010807,0,38.2515,38.3206,37.9408,38.1479,361352.888
20010808,0,38.1755,38.6486,37.6399,37.6954,425299.32
20010809,0,37.8138,37.8138,37.292,37.5146,503632.573000001
20010810,0,37.7094,38.0295,37.2223,37.9946,594182.885000001
20010813,0,37.9529,38.1268,37.5702,38.099,737194.939000001
20010814,0,38.1408,38.2869,37.8276,38.1755,345960.230000001
20010815,0,37.9181,38.4399,37.6399,37.7164,631840.738
20010816,0,37.7789,37.8416,37.0832,37.6259,557819.274000001
20010817,0,37.1528,37.6954,36.5266,37.0484,1201157.721
20010820,0,36.9441,36.9441,36.0048,36.5197,1618695.242
20010821,0,36.3527,37.0484,36.3249,36.8049,1472521.257
20010822,0,36.9789,37.3476,36.4849,37.1598,487247.396000001
20010823,0,37.1876,37.4659,36.8606,37.2293,354009.021
20010824,0,37.3615,38.259,37.278,38.1199,665760.881000001
20010827,0,38.1268,38.5373,38.0155,38.1617,512112.714000001
20010828,0,37.9877,37.9877,37.5355,37.6259,447146.561000001
20010829,0,37.3615,38.0364,36.9441,37.1111,463244.242000001
20010830,0,36.9441,37.5355,36.6867,36.8119,522892.570000001
20010831,0,36.5405,37.8903,36.5405,37.6537,755880.105000001
20010904,0,37.605,38.5791,37.3268,38.273,736476.471000001
20010905,0,38.2799,38.4747,37.9181,38.1408,1107157.826
20010906,0,38.0016,38.259,37.7094,37.7094,1278772.905
20010907,0,37.6746,37.7094,35.963,36.0466,1297457.425
20010910,0,36.0884,36.2484,35.2256,35.3995,1213806.407
20010917,0,32.0043,33.2984,31.5242,31.5242,1231629.145
20010918,0,31.4825,32.4217,30.8911,31.3085,1338565.244
20010919,0,31.6564,31.8303,29.9101,30.9189,2320101.5
20010920,0,30.7519,30.7519,29.1587,29.2144,1070362.74
20010921,0,29.1795,29.1795,27.1271,28.3168,1816469.573
20010924,0,29.2909,29.931,29.0822,29.8822,847867.972000001
20010925,0,30.0214,30.5432,29.1865,30.0492,1224298.309
20010926,0,29.9797,30.1606,29.4509,29.6109,739351.259000001
20010927,0,29.5344,29.9797,29.3604,29.9797,1089766.63
20010928,0,30.1258,31.8303,30.1049,31.7051,1137916.802
20011001,0,31.7538,31.8303,30.7172,31.6842,1019194.783
20011002,0,31.5172,32.1782,31.4616,32.0947,593033.233000001
20011003,0,32.0947,33.0409,31.7608,32.9087,1005253.358
20011004,0,32.9018,32.9435,32.3869,32.6791,764647.790000001
20011005,0,32.8392,33.674,32.4913,33.0131,770396.731000001
20011008,0,32.7,32.7278,32.0738,32.213,636583.708000001
20011009,0,31.7956,33.034,31.7956,32.7,562849.795000001
20011010,0,32.1782,33.7854,32.1087,33.6462,894436.638000002
20011011,0,33.674,35.4831,33.5001,35.2534,1152289.829
20011012,0,34.7873,35.0655,34.4672,34.5368,1402524.744
20011015,0,34.3628,34.8846,33.9594,34.4115,670647.753000002
20011016,0,34.6481,34.996,33.9246,34.6342,683152.442000002
20011017,0,34.9612,35.4134,33.7924,34.1611,1084736.021
20011018,0,34.1054,34.4394,33.6323,33.7994,871695.196999998
20011019,0,34.2655,34.335,33.361,33.688,1292696.081
20011022,0,33.535,35.1282,33.4653,35.0586,1239965.563
20011023,0,34.9195,35.2743,34.4047,34.9403,972769.972000001
20011024,0,34.7873,35.1421,34.2307,34.829,1083442.161
20011025,0,34.6829,35.1003,34.1611,35.0934,1297026.279
20011026,0,35.2395,35.7265,34.8499,35.65,770396.900000001
20011029,0,35.4831,35.4969,34.4394,34.6968,714629.136000002
20011030,0,34.1959,34.3698,33.7367,33.848,799717.940000002
20011031,0,33.9871,34.2655,33.6045,33.9315,559831.483000001
20011101,0,33.8202,35.0655,33.4653,34.7664,842406.330000001
20011102,0,34.9264,36.4083,34.7177,35.7891,1415173.44
20011105,0,35.8727,36.3875,35.2395,35.9074,1015026.508
20011106,0,35.8657,36.7354,35.5526,36.6797,644920.142000001
20011107,0,36.5534,36.7357,36.2729,36.6025,955468.615
20011108,0,36.6235,36.7006,36.2518,36.3289,754279.890000001
20011109,0,36.2588,36.7848,35.9432,36.5393,680990.467000001
20011112,0,36.1185,36.1887,35.5925,35.8661,743871.11
20011113,0,36.0484,37.1004,36.0484,37.0443,606845.989
20011114,0,37.3459,37.9,37.2407,37.7526,566494.185000001
20011115,0,37.8017,38.3208,37.5563,38.0121,675287.048
20011116,0,37.9842,38.1524,37.7316,37.928,520581.517000001
20011119,0,37.9069,38.5662,37.9069,38.4751,598575.937
20011120,0,38.1875,38.426,37.8719,38.2647,900287.924999999
20011121,0,37.928,38.1875,37.7036,37.8228,492064.133
20011123,0,37.7667,38.468,37.6615,38.3909,182082.256
20011126,0,38.2225,38.4329,37.7036,38.2156,601285.153000001
20011127,0,38.0823,38.2927,37.7667,37.928,617397.413000001
20011128,0,37.8017,37.8017,37.2968,37.4301,739878.6
20011129,0,37.3108,37.6896,36.9391,37.3809,517587.106000001
20011130,0,37.5212,38.1524,37.4511,37.7877,446579.427000001
20011203,0,37.4511,37.4861,36.89,37.2056,1031609.856
20011204,0,37.1705,37.6615,36.7497,37.5913,525857.134000001
20011205,0,37.6474,38.8187,37.6474,38.7626,684555.143
20011206,0,38.468,38.966,38.1173,38.468,712930.061000001
20011207,0,37.921,38.3418,37.2407,37.2617,2095727.808
20011210,0,37.3389,37.3389,35.9643,36.1958,2404141.575
20011211,0,36.2939,37.0162,36.1607,36.5744,901143.178999999
20011212,0,36.8199,36.8199,35.9432,35.9783,908700.417999999
20011213,0,35.5224,35.838,35.0315,35.27,1743683.623
20011214,0,35.2769,35.7679,34.9403,35.0736,1084793.732
20011217,0,35.2769,35.6276,35.2068,35.4804,703661.656000001
20011218,0,35.9432,36.5744,35.8731,36.4622,1629043.356
20011219,0,36.4622,36.6095,35.9081,36.2659,1277998.107
20011220,0,36.0345,36.8199,36.0345,36.2448,709935.484
20011221,0,36.4692,36.4692,35.4594,35.4734,1241494.746
20011224,0,35.4873,35.9783,35.4873,35.6838,311550.455
20011226,0,35.5925,35.838,35.2769,35.6137,1066542.536
20011227,0,35.7679,35.8591,35.4102,35.5996,596864.777
20011228,0,35.6977,35.9783,35.5224,35.8661,492491.895000001
20011231,0,35.9081,36.8549,35.838,36.2588,1024907.276
20020102,0,36.1185,36.1256,35.6066,35.9643,675857.662
20020103,0,35.7328,36.7497,35.5856,36.6376,810886.721
20020104,0,36.6376,37.8298,36.6095,37.7246,829422.822000001
20020107,0,37.7036,38.0613,37.5212,37.5844,566351.571000001
20020108,0,37.5563,37.6965,37.1004,37.1495,887882.780999999
20020109,0,37.3108,37.5773,36.89,36.9882,617397.349
20020110,0,36.876,36.876,35.4453,35.8241,1118016.622
20020111,0,35.7609,35.7609,35.0105,35.2209,1215830.609
20020114,0,35.2769,35.312,33.8463,33.9164,1283843.931
20020115,0,34.26,34.5756,33.6639,33.9164,1169774.87
20020116,0,33.3132,33.6639,32.6119,32.6681,1721002.739
20020117,0,30.6833,32.0719,29.8907,31.9737,4577269.23199999
20020118,0,31.56,31.7914,31.4197,31.6721,1875004.791
20020122,0,31.56,32.1209,31.5038,31.7142,1134698.948
20020123,0,31.644,32.6119,31.6301,32.5979,948196.893
20020124,0,32.5979,33.1379,32.4997,32.7592,1402475.86
20020125,0,32.7521,33.8041,32.5768,33.734,1195868.494
20020128,0,33.5587,33.706,33.1729,33.3132,745582.28
20020129,0,33.0327,33.3833,32.4646,32.6681,902997.017
20020130,0,32.6469,33.2501,32.4296,33.1729,1143824.492
20020131,0,33.18,34.0847,32.9625,34.0145,796342.651
20020201,0,33.9024,34.3723,33.6779,33.7621,1007227.256
20020204,0,33.6639,33.7972,32.9976,33.0327,678994.483
20020205,0,33.2431,33.5236,32.4716,32.5067,944061.765999999
20020206,0,32.5629,33.0327,32.1911,32.7311,1520536.42
20020207,0,32.7592,32.9696,32.0508,32.64,942921.085
20020208,0,32.7171,33.1379,32.3945,32.8924,893871.570999999
20020211,0,33.2781,34.5055,33.2781,34.2671,1404329.025
20020212,0,34.4494,34.4985,33.8112,34.1058,1025763.028
20020213,0,34.2249,34.7019,34.0145,34.3652,741874.705
20020214,0,34.3659,34.6983,33.9909,34.1324,638245.905
20020215,0,34.1678,35.3704,34.1678,34.7196,1185455.668
20020219,0,34.6276,34.8469,33.8,33.807,668780.045
20020220,0,34.5569,34.8469,34.1324,34.663,836717.272999999
20020221,0,34.7691,36.0778,34.7691,35.137,1282995.111
20020222,0,34.9813,35.9363,34.9388,35.6958,970445.27
20020225,0,35.6887,35.9576,35.3987,35.908,786816.600999998
20020226,0,35.9363,36.4527,35.625,36.1132,933973.674999998
20020227,0,36.2829,36.9762,36.0778,36.2263,1047203.884
20020228,0,36.2193,37.4926,36.2193,36.3749,1212031.164
20020301,0,36.481,37.6907,36.3395,37.1601,1351696.322
20020304,0,37.4926,38.5537,37.4219,38.3698,1483162.249
20020305,0,37.8816,38.0231,37.0257,37.0823,963376.744999998
20020306,0,36.8984,37.8816,36.8984,37.7048,739601.848999999
20020307,0,37.8816,38.3132,37.337,38.193,852690.897999999
20020308,0,38.7305,38.7659,38.3344,38.4264,1919827.761
20020311,0,38.3415,38.5749,38.1505,38.3698,790350.796
20020312,0,38.3203,38.7022,38.0231,38.5678,637539.309999999
20020313,0,38.5537,38.5678,38.0443,38.0585,956026.062999999
20020314,0,37.9524,38.9782,37.9524,38.6386,964931.677999999
20020315,0,38.8012,39.1904,38.6527,39.1055,904287.295999998
20020318,0,38.9216,39.4804,38.9216,39.1833,918989.362999998
20020319,0,39.3531,39.6149,39.1833,39.4521,813958.149
20020320,0,39.4026,40.5628,39.4026,39.9968,2349707.006
20020321,0,39.8978,39.9261,38.483,38.7022,1756413.383
20020322,0,38.7093,38.78,38.0231,38.0585,871350.448999998
20020325,0,37.917,38.016,37.2096,37.2803,934115.012999999
20020326,0,37.4219,38.5183,37.4219,38.1434,749214.718999998
20020327,0,38.3061,39.4026,38.2991,39.1196,899198.688999998
20020328,0,39.1904,39.4026,38.8792,38.8862,869937.021999998
20020401,0,38.8438,38.8438,37.8604,38.483,491512.93
20020402,0,38.5537,38.6315,38.1081,38.5183,523036.736999998
20020403,0,38.8012,39.0489,38.0585,38.1222,1122973.322
20020404,0,37.2803,37.4007,36.665,37.337,1010167.45
20020405,0,37.5987,38.3698,37.5704,37.9594,619586.263999999
20020408,0,37.6694,38.2213,37.3795,38.1081,1100214.511
20020409,0,38.1222,38.391,37.8109,38.3061,732534.014
20020410,0,38.3132,38.9923,38.1576,38.9782,888172.445999998
20020411,0,38.8579,39.1196,38.4122,38.4334,704120.350999999
20020412,0,38.5537,38.7164,38.2071,38.5183,634570.663999999
20020415,0,38.5112,38.5537,38.0939,38.101,517240.748999999
20020416,0,38.2,39.1833,38.2,39.1762,907963.153999999
20020417,0,39.0135,39.2257,38.8579,38.9074,969997.975000002
20020418,0,38.8367,38.9074,37.0681,37.5209,1889261.472
20020419,0,37.9877,38.3132,37.6907,37.818,854669.737999998
20020422,0,38.0231,38.0231,37.245,37.3512,742853.327999999
20020423,0,37.3228,37.4502,36.8559,36.9408,926622.948
20020424,0,37.0328,37.5987,36.8489,37.0257,1106999.898
20020425,0,36.9267,36.9267,36.2193,36.6579,763774.692999998
20020426,0,36.7852,37.245,36.764,36.8913,666942.177999999
20020429,0,36.863,36.962,36.2193,36.2546,732392.486999999
20020430,0,36.3254,37.245,36.29,36.9974,781020.731
20020501,0,36.9267,37.2803,36.1839,36.955,1171036.932
20020502,0,36.9974,38.0373,36.9762,37.8463,902732.946999999
20020503,0,37.9877,38.1717,37.5634,38.1152,551167.51
20020506,0,38.0939,38.4971,38.0231,38.1647,1269989.455
20020507,0,38.4122,39.3672,38.3486,39.0277,973272.197999999
20020508,0,39.5624,40.0328,39.3841,39.6479,1182180.877
20020509,0,39.5267,40.1255,39.5267,39.6764,688658.83
20020510,0,39.6835,39.7976,39.4198,39.5624,658357.096
20020513,0,39.5339,39.8831,39.1061,39.8831,597192.864000001
20020514,0,40.1326,40.7457,40.0614,40.7457,752347.843999999
20020515,0,41.3444,42.0501,41.0735,41.3373,1797611.457
20020516,0,41.1448,41.487,40.881,41.0664,858543.466
20020517,0,41.045,41.2589,40.7172,41.1021,588495.061
20020520,0,41.1306,41.1663,40.5604,40.9666,808742.659
20020521,0,41.1663,41.487,40.7956,40.8526,719801.797
20020522,0,40.5604,41.0878,40.5604,41.0237,675892.724
20020523,0,41.0593,41.765,40.7813,41.6224,996023.092
20020524,0,41.5868,42.0216,41.1663,41.3373,464202.823
20020528,0,41.4157,41.487,40.7742,40.881,459292.738
20020529,0,40.7385,40.881,40.2823,40.5105,521579.304
20020530,0,40.4177,40.6673,39.8831,40.1326,785735.715
20020531,0,40.0257,40.931,39.8902,40.71,758239.696
20020603,0,41.0593,41.0593,39.6977,39.6977,717697.586
20020604,0,39.598,39.8617,38.9208,39.2915,770584.946
20020605,0,39.3841,40.3108,39.3485,40.2823,718539.432
20020606,0,40.1683,40.4106,39.5624,39.598,637875.592
20020607,0,39.5766,40.2324,39.3984,40.0614,548513.941
20020610,0,40.0614,40.9452,40.0115,40.8026,545708.143
20020611,0,41.2375,41.4799,40.0969,40.1398,864996.726
20020612,0,40.1683,41.1306,39.9544,41.1306,905118.371
20020613,0,41.2018,41.3159,40.6388,40.6458,870467.919
20020614,0,40.71,40.7742,39.6693,40.5959,883514.291000001
20020617,0,40.7599,41.9147,40.7599,41.9147,831608.737
20020618,0,41.9147,42.0501,41.38,41.8078,1212482.626
20020619,0,41.9147,42.4707,41.5226,42.2426,1466678.851
20020620,0,42.2355,42.8414,42.2355,42.6917,1669390.146
20020621,0,42.6917,42.7273,42.1285,42.3424,1500627.133
20020624,0,42.485,42.7273,42.0074,42.5064,1389381.426
20020625,0,42.763,43.1907,42.6988,42.7202,1211921.223
20020626,0,42.2712,42.7701,41.8291,42.4493,1240960.014
20020627,0,42.5563,42.9697,42.0644,42.1429,1400744.681
20020628,0,42.1571,43.6326,42.1571,43.5257,1539907.607
20020701,0,44.1245,44.1245,42.8414,43.5684,1737849.397
20020702,0,43.3404,43.4972,42.984,43.4401,1707968.435
20020703,0,43.3047,43.8251,41.7151,42.7558,1434132.456
20020705,0,42.7131,44.1815,42.5848,44.0889,547111.363
20020708,0,43.982,44.6948,43.982,44.5379,1123120.724
20020709,0,44.4096,44.8088,43.3404,43.4758,1676965.737
20020710,0,43.4116,44.1957,42.6988,42.7987,2081267.175
20020711,0,42.7701,43.2976,41.8506,41.9005,2161510.126
20020712,0,41.7792,42.2712,41.2304,41.373,1874487.067
20020715,0,41.3658,41.3658,38.9565,40.4035,2038198.65
20020716,0,40.0257,40.5033,38.543,39.6977,1367637.409
20020717,0,40.6173,40.988,39.7976,40.1041,1293685.957
20020718,0,40.0614,40.8455,39.6336,39.99,1344613.529
20020719,0,38.9921,38.9992,36.8108,36.8179,2433662.142
20020722,0,36.7823,36.9249,34.7507,35.0572,2374042.067
20020723,0,35.0144,36.1336,34.5725,35.0002,1814024.36
20020724,0,34.6437,38.0653,34.4727,37.9514,1484915.829
20020725,0,37.8658,40.4534,37.4594,40.2182,3004902.092
20020726,0,40.2039,40.3892,39.2059,39.9544,1786528.326
20020729,0,40.0328,42.4137,40.0328,42.4065,1546921.299
20020730,0,42.1285,42.1927,39.876,40.0328,1570349.628
20020731,0,40.0614,40.9167,39.4198,40.9167,1599528.668
20020801,0,40.9167,41.6224,40.0257,40.7314,1155807.4
20020802,0,40.881,40.881,37.9799,38.4147,1314048.506
20020805,0,39.0134,39.6336,38.3506,38.5786,1956133.228
20020806,0,39.1988,40.8668,39.1347,40.2252,1525738.829
20020807,0,40.7029,41.2874,39.434,41.209,1320501.722
20020808,0,41.0582,41.8267,40.6488,41.7835,1073969.966
20020809,0,41.5107,41.9415,40.8715,41.5825,1120337.119
20020812,0,40.7925,41.6183,40.3257,41.3167,780448.270000001
20020813,0,40.936,41.7692,40.6129,40.6847,1159185.113
20020814,0,40.7493,41.1587,38.8175,41.1372,2189572.571
20020815,0,41.1875,41.5465,40.3328,41.1013,991120.527000002
20020816,0,41.1443,41.3957,40.1892,40.9863,945588.838000001
20020819,0,40.9217,42.0852,40.7135,42.042,1132589.995
20020820,0,41.6542,41.6615,40.7565,40.9217,1075083.658
20020821,0,41.1875,41.4029,40.419,41.1372,1158350.127
20020822,0,41.0295,41.9128,40.9289,41.7405,704701.011000001
20020823,0,41.6542,41.6542,40.577,40.5842,1196502.179
20020826,0,40.7565,41.0223,40.0097,40.936,955474.750000002
20020827,0,41.1157,41.5609,40.6129,40.6919,941829.49
20020828,0,40.7207,40.7207,39.6075,40.0097,754827.79
20020829,0,39.708,40.6632,39.277,40.103,665713.521000001
20020830,0,40.2538,41.0869,40.0455,40.4262,941550.841000003
20020903,0,40.2323,40.34,39.0903,39.5069,1079539.132
20020904,0,39.5069,40.024,39.3202,39.909,812195.536000001
20020905,0,39.1407,39.3273,38.444,38.4943,1384617.48
20020906,0,38.9252,39.4997,38.681,38.7815,2003963.076
20020909,0,38.2429,39.2125,38.2285,39.1407,1149020.445
20020910,0,39.0688,39.2483,38.0993,38.602,1468441.298
20020911,0,38.839,38.961,38.4512,38.5805,668776.879
20020912,0,37.9197,37.9915,37.1297,37.2805,1428617.79
20020913,0,36.9143,36.9502,36.1674,36.9215,1129387.816
20020916,0,36.6485,37.0292,36.3254,36.8712,538446.784
20020917,0,37.1297,37.3093,36.232,36.3325,971209.359000001
20020918,0,36.0525,36.4834,35.5857,36.268,1059349.327
20020919,0,35.7293,36.3757,35.442,35.4923,814145.039000001
20020920,0,35.7795,36.232,35.7508,36.0668,1467605.194
20020923,0,35.9447,36.0453,35.1188,35.636,1149856.25
20020924,0,34.688,34.9824,33.783,33.977,1752353.903
20020925,0,34.0918,34.5802,33.7184,33.9338,1764467.694
20020926,0,34.293,34.4725,33.7902,34.0847,2021229.654
20020927,0,33.9698,34.5084,32.8422,33.108,2092520.564
20020930,0,32.4616,32.4616,31.607,32.1384,1792177.559
20021001,0,32.4975,34.1422,32.318,34.0775,1986418.962
20021002,0,33.2875,34.0918,32.16,32.1743,1839101.735
20021003,0,32.4257,33.0864,32.1743,32.3538,1984747.822
20021004,0,32.4975,32.8063,30.702,31.4202,1357604.395
20021007,0,31.2766,31.7578,30.5943,30.7092,1402579.68
20021008,0,31.097,32.002,30.0055,31.7147,1740100.465
20021009,0,31.1689,31.3125,29.7253,29.754,1615061.179
20021010,0,30.0198,32.9068,29.948,32.7992,2013988.809
20021011,0,33.4312,35.1547,33.2588,34.6305,1750961.567
20021014,0,34.293,34.3002,33.5748,33.74,1160438.662
20021015,0,33.7758,36.1745,33.7758,36.1027,1457162.707
20021016,0,36.232,36.4834,34.1422,34.1493,1697609.013
20021017,0,35.1907,37.1225,35.1907,36.268,1653061.025
20021018,0,36.0381,36.268,35.1188,35.715,1560479.037
20021021,0,35.7221,37.9557,35.0255,37.9054,1808190.186
20021022,0,37.1657,37.4529,36.1387,36.2033,1498656.103
20021023,0,35.9447,36.7922,35.1907,36.0668,787410.544
20021024,0,36.0165,36.3038,34.7238,34.889,1379882.808
20021025,0,34.4725,35.3343,33.9338,35.2265,1246350.657
20021028,0,35.442,35.442,34.1924,34.4653,952411.63
20021029,0,34.3648,34.5084,32.713,33.4095,1633441.886
20021030,0,33.3234,33.6753,32.7848,33.5388,1157514.627
20021031,0,33.5748,34.056,33.2588,33.7758,558776.055
20021101,0,33.7184,35.32,33.5748,35.2194,1215160.642
20021104,0,35.478,35.9088,34.8315,34.9177,1361642.211
20021105,0,34.968,35.5138,34.7238,35.0398,874297.359000002
20021106,0,35.1907,36.0597,34.889,36.031,714447.955
20021107,0,36.0309,36.067,34.8283,34.908,535765.644000001
20021108,0,34.9877,35.5962,33.9591,34.2344,688584.922000001
20021111,0,34.2271,34.3431,33.2058,33.3578,528034.903000001
20021112,0,33.4014,34.8936,33.2492,34.5604,998641.945
20021113,0,34.5531,35.1833,33.8577,34.2417,1149666.551
20021114,0,34.6618,35.4224,34.5097,35.2993,493246.539
20021115,0,35.1326,35.7266,34.9877,35.4731,594712.293
20021118,0,35.6397,35.7049,34.6328,34.6473,738006.422000001
20021119,0,34.6545,35.2413,34.1184,34.7922,910014.762000002
20021120,0,34.908,35.1978,34.2706,35.0095,532038.191000001
20021121,0,32.0613,34.8066,31.9743,34.7776,5402797.659
20021122,0,34.7776,35.2413,33.7925,33.9156,2166945.458
20021125,0,33.7925,34.5459,33.4592,34.0606,931964.498
20021126,0,34.0896,34.2271,33.5679,34.075,1371096.412
20021127,0,34.191,35.5745,34.0099,35.5455,1018520.522
20021129,0,35.7846,36.3496,35.7121,36.2771,629362.274
20021202,0,36.6321,36.6901,34.937,35.3282,1045992.54
20021203,0,35.3064,35.4224,34.698,34.8719,902145.525
20021204,0,34.8863,35.0457,34.046,34.6835,646342.264000002
20021205,0,34.7705,34.7705,34.0606,34.4517,512435.374000001
20021206,0,33.7563,35.0602,33.7201,34.8283,618042.399000001
20021209,0,34.4082,34.8791,34.1981,34.3358,836158.668000002
20021210,0,34.4082,34.7705,34.046,34.7342,581321.506000001
20021211,0,34.6255,35.3861,34.2924,35.1036,709568.421000002
20021212,0,34.8791,35.3934,34.6183,35.2775,1091410.331
20021213,0,35.2993,35.4948,34.995,35.1254,1036604.89
20021216,0,35.1326,36.6176,35.1326,36.5814,1260519.503
20021217,0,36.5597,36.8566,36.3713,36.5524,1180037.162
20021218,0,36.0236,36.212,35.5672,35.7339,1435012.827
20021219,0,35.6759,36.1467,35.3427,35.4948,689551.488000001
20021220,0,35.7121,36.3786,35.7121,36.212,842094.747000002
20021223,0,36.2554,36.4075,35.7339,36.0743,762855.26
20021224,0,35.8932,36.1467,35.8425,35.857,183880.425
20021226,0,35.9222,36.5814,35.7484,35.9439,494627.238
20021227,0,36.0019,36.4075,35.8353,35.8353,762993.384000001
20021230,0,35.8932,36.4727,35.7556,36.2554,804131.507000001
20021231,0,36.4365,36.5814,35.6614,36.3641,764511.770000001
20030102,0,36.509,37.4724,36.2917,37.371,879506.013000001
20030103,0,37.4651,37.5158,37.1247,37.371,725167.871000001
20030106,0,37.4507,38.1533,37.4507,37.9939,959297.927
20030107,0,38.0302,38.0953,37.61,37.7839,756090.793000001
20030108,0,37.6462,37.7259,36.9798,37.016,905873.143000001
20030109,0,37.1971,37.8563,37.1102,37.7549,895519.290000001
20030110,0,37.668,38.4286,37.5955,38.146,932102.377000002
20030113,0,38.5734,38.5734,37.7404,37.7911,929479.275000001
20030114,0,37.7042,38.1243,37.7042,37.936,959160.386000001
20030115,0,37.9215,37.9215,37.2333,37.5375,896212.136
20030116,0,37.5593,38.5734,37.5593,38.1967,1085601.221
20030117,0,38.0302,38.2837,37.668,37.7332,737316.295000002
20030121,0,37.936,37.9867,36.8712,36.9291,578836.781000002
20030122,0,36.8349,37.0885,36.2989,36.3641,747531.718000001
20030123,0,36.4365,37.016,36.3134,36.9146,796677.186000002
20030124,0,36.5814,36.6901,35.8715,35.9077,632951.402000001
20030127,0,35.9005,35.9222,34.7198,34.8066,799437.819000001
20030128,0,34.8936,35.4514,34.8429,35.4078,664426.649000002
20030129,0,34.8791,35.7049,34.5024,35.5021,1044335.616
20030130,0,35.4441,35.4441,34.2924,34.3285,1033015.529
20030131,0,33.8649,35.7194,33.8577,35.35,1398015.441
20030203,0,35.35,36.2264,35.2775,35.56,848583.208000001
20030204,0,35.3861,35.4007,34.9153,35.3571,626325.306000001
20030205,0,35.3354,36.067,35.1978,35.3282,705979.175000001
20030206,0,35.2413,35.4078,34.7995,34.9805,545429.188000001
20030207,0,35.1326,35.2413,34.4227,34.5459,613072.730000001
20030210,0,34.5531,34.9153,34.191,34.7705,566826.536000001
20030211,0,34.8283,35.0167,34.017,34.3431,642753.035000001
20030212,0,34.3213,34.6691,34.0316,34.0533,690241.680000001
20030213,0,34.0534,34.4701,33.9218,34.3751,585577.829
20030214,0,34.3532,34.8648,33.8999,34.6017,667101.874
20030218,0,34.7259,35.7275,34.7187,35.4424,634273.455
20030219,0,35.4059,35.4936,34.7844,35.0257,480116.279
20030220,0,35.0111,35.0914,34.3751,34.4555,478611.683000001
20030221,0,34.4701,35.1499,34.2288,35.0549,678591.868
20030224,0,35.0038,35.0111,34.163,34.185,757517.075
20030225,0,33.8852,33.9584,32.8983,33.9437,1481931.952
20030226,0,33.9291,34.5067,33.8999,34.0679,699246.103999999
20030227,0,34.0753,34.5286,33.8633,34.2361,679686.292999999
20030228,0,34.2873,34.6894,33.7975,33.9291,851214.817
20030303,0,34.1045,34.5431,33.739,33.7609,705675.268
20030304,0,33.6293,33.6878,32.5912,32.6789,1175943.225
20030305,0,32.6424,32.6424,31.67,32.4669,1319704.633
20030306,0,32.4231,32.4304,31.6188,31.6993,1113569.018
20030307,0,31.6554,32.3793,31.2899,31.904,1034233.555
20030310,0,31.9113,32.021,31.268,31.3265,722910.446
20030311,0,31.3411,31.6481,31.151,31.1729,1056392.574
20030312,0,31.6409,31.9113,31.151,31.8163,1693538.853
20030313,0,32.094,32.8324,32.0502,32.8324,1315875.003
20030314,0,32.8545,33.3004,32.5328,32.9129,1090178.62
20030317,0,32.8909,34.0168,32.5181,33.9218,1044902.716
20030318,0,34.1045,34.8722,34.0826,34.609,865714.386
20030319,0,34.8722,34.8722,34.258,34.6602,977877.982
20030320,0,34.6821,34.8648,34.0168,34.6236,736452.017
20030321,0,35.0038,36.5901,35.0038,36.539,1170060.732
20030324,0,36.5536,36.5536,34.6455,34.821,1190169.078
20030325,0,34.8575,35.223,34.5871,34.916,749446.540999999
20030326,0,34.8941,34.9819,34.2507,34.6017,731801.316
20030327,0,34.2507,34.397,33.739,34.1265,966251.362
20030328,0,33.9584,34.1045,33.6878,34.0022,981571.516999999
20030331,0,32.6497,33.7024,32.6497,32.9714,1288381.185
20030401,0,33.1541,34.1411,32.7886,33.8633,1299734.303
20030402,0,34.3604,34.9819,34.3092,34.7259,876109.822
20030403,0,34.7625,34.7625,33.7828,33.7828,2138912.257
20030404,0,33.9949,34.0753,33.3881,33.7024,2126190.501
20030407,0,34.3604,34.7259,34.1411,34.2142,1764666.918
20030408,0,34.1776,34.2142,33.3369,33.5782,1221356.289
20030409,0,33.5927,33.7024,32.8252,32.9056,1444862.879
20030410,0,32.9202,33.5708,32.8252,33.5197,877477.588000001
20030411,0,33.8121,34.2507,33.3516,33.4173,852856.139
20030414,0,33.3516,33.6732,33.1907,33.5489,1236265.507
20030415,0,33.4612,33.8706,32.9714,33.8487,888420.706
20030416,0,33.9949,34.0679,33.198,33.2346,670090.848999999
20030417,0,33.2638,33.7683,33.2053,33.7171,922174.078999999
20030421,0,33.8706,34.1338,33.4685,33.6805,969397.291999999
20030422,0,33.5927,34.6747,33.3954,34.609,1217662.738
20030423,0,34.4701,35.1646,34.2873,35.0403,1095650.025
20030424,0,34.9819,35.0549,34.0095,34.7552,970491.472
20030425,0,34.704,34.704,33.5197,33.7683,789387.779
20030428,0,33.9218,34.9234,33.8925,34.8429,652329.008
20030429,0,34.9819,35.2377,34.6528,35.1354,1142294.134
20030430,0,35.033,35.7641,34.6894,35.435,1188800.998
20030501,0,35.3693,35.4716,34.7187,35.3912,1368400.012
20030502,0,35.4059,35.786,35.3327,35.7494,1186475.767
20030505,0,35.7714,35.8518,35.4278,35.5959,743017.656
20030506,0,35.6763,35.9323,35.34,35.7129,867355.533
20030507,0,35.3986,35.6544,34.6894,35.1499,1357731.104
20030508,0,35.0391,35.0391,34.3383,34.6408,990014.596
20030509,0,34.8916,35.1646,34.5965,34.958,856349.836
20030512,0,34.9358,35.6735,34.5597,35.5702,1023227.505
20030513,0,35.526,35.8284,35.2678,35.526,1122052.678
20030514,0,35.7251,35.7546,34.8326,35.1055,1216675.141
20030515,0,35.1129,35.7473,35.0907,35.4891,1306553.318
20030516,0,35.4227,35.6145,35.3342,35.4744,924402.734000001
20030519,0,35.4818,35.4965,34.8178,34.8695,997741.893000001
20030520,0,34.9137,35.7104,34.449,34.8769,1259513.374
20030521,0,34.6851,35.0465,34.3605,35.017,1296521.679
20030522,0,35.0539,35.4301,34.8474,35.3195,1092906.842
20030523,0,35.5039,35.6219,35.0391,35.3269,697334.765000001
20030527,0,35.1498,36.035,34.9358,35.9981,717804.845
20030528,0,35.976,35.976,35.585,35.8801,913014.960000001
20030529,0,35.9243,36.1751,35.3121,35.5039,1118934.718
20030530,0,35.4891,36.0718,35.3785,35.8727,1177633.484
20030602,0,36.0571,36.5883,35.8579,36.1678,1142115.974
20030603,0,36.2784,36.389,35.9243,36.3522,1135473.516
20030604,0,36.4112,37.3628,36.389,37.289,1211795.266
20030605,0,37.0899,37.6209,36.5883,36.9349,1170177.952
20030606,0,37.1415,37.4513,36.6325,36.6988,1171397.373
20030609,0,36.662,36.721,35.9686,36.0128,789110.594
20030610,0,36.2046,36.5144,36.0792,36.2637,871261.649
20030611,0,36.3669,36.8316,36.1456,36.8095,852689.77
20030612,0,37.1783,37.7685,37.0604,37.6209,1342477.97
20030613,0,37.7316,37.8423,37.0309,37.1857,867872.6
20030616,0,37.3259,37.8792,37.2964,37.8718,756033.379
20030617,0,37.9898,38.3586,37.6578,38.2848,1078130.291
20030618,0,38.3144,38.3144,37.6504,37.7832,998012.619
20030619,0,37.7758,37.9898,37.5841,37.8127,1272527.295
20030620,0,38.3955,38.4176,37.8053,38.0635,1325939.829
20030623,0,38.0414,38.0414,37.2521,37.5398,1225622.915
20030624,0,37.5177,37.7316,37.4734,37.5767,1423137.299
20030625,0,37.6209,37.8792,37.4365,37.5472,1396431.64
20030626,0,37.4881,38.2701,37.4734,38.1374,1029328.102
20030627,0,38.0635,38.0635,37.4808,37.6504,723227.236000001
20030630,0,37.6062,37.8423,37.3406,37.466,876277.621000001
20030701,0,37.4292,37.4292,36.2932,36.662,1863174.399
20030702,0,36.6546,36.9202,36.5883,36.8833,1278220.74
20030703,0,36.8833,36.8833,36.2563,36.2563,688522.996
20030707,0,36.4407,37.2521,36.4407,37.0309,806055.976
20030708,0,36.9939,37.1783,36.7358,37.0309,654632.293000001
20030709,0,36.9939,37.1046,36.6399,36.8095,556756.012000001
20030710,0,36.8021,36.8021,36.1088,36.4038,849436.132
20030711,0,36.6104,36.8685,36.5439,36.78,888478.141999999
20030714,0,37.0309,37.3776,36.8907,36.9202,785450.472
20030715,0,37.0751,37.3406,36.9571,37.0309,883326.713
20030716,0,37.0972,37.2816,36.7505,37.0087,620059.466999999
20030717,0,37.1046,37.8053,37.0677,37.7906,1304897.17
20030718,0,37.798,38.7644,37.798,38.6537,1484954.072
20030721,0,38.6611,39.1332,38.6242,39.0816,1045730.985
20030722,0,39.0741,39.7455,38.9267,39.7307,1298013.216
20030723,0,39.8339,39.9372,39.0299,39.5241,951786.07
20030724,0,39.5388,40.4979,39.502,39.9077,1489427.695
20030725,0,40.0183,40.9404,39.9741,40.9257,1561411.311
20030728,0,40.9036,40.9404,40.4241,40.8225,1345053.601
20030729,0,40.9625,41.0364,40.1659,41.0364,916675.693
20030730,0,41.1101,41.2355,40.8372,41.2281,831948.544000001
20030731,0,41.3093,42.379,41.2872,41.6486,1304791.305
20030801,0,41.5306,41.5306,40.756,41.0511,898780.943
20030804,0,40.9995,40.9995,40.3208,40.6159,1428831.109
20030805,0,40.6602,40.6602,40.2176,40.2249,800769.109
20030806,0,40.0921,40.343,39.7971,40.0258,1426932.747
20030807,0,38.8064,39.6318,38.8064,39.3791,1757487.367
20030808,0,39.5575,40.1375,39.55,39.959,849828.925
20030811,0,39.8846,40.2862,39.7062,39.9664,1198825.519
20030812,0,39.9813,40.4348,39.7359,40.4275,944911.651
20030813,0,40.4348,40.4498,40.0334,40.2266,598336.509
20030814,0,40.2639,41.0669,40.1152,40.7918,665714.862
20030815,0,41.0446,41.052,40.5316,40.8141,321425.919
20030818,0,40.8141,41.4759,40.7323,41.4536,854536.28
20030819,0,41.4609,41.8848,41.4164,41.8105,1158612.583
20030820,0,41.7436,41.7956,41.513,41.5725,632092.897
20030821,0,41.58,42.0782,41.4907,41.7956,810289.113
20030822,0,41.9368,42.0112,41.1413,41.1561,607616.054
20030825,0,41.1561,41.1561,40.5836,40.9554,504732.935
20030826,0,40.8959,40.9479,40.1003,40.7695,921107.295999999
20030827,0,40.71,40.7323,40.4869,40.6282,488997.76
20030828,0,40.5613,41.0446,40.078,40.9851,599950.335
20030829,0,40.8587,40.9479,40.5166,40.8216,864622.742
20030902,0,40.8141,41.2082,40.4498,41.2082,1149602.275
20030903,0,41.2305,41.5725,40.9702,41.5056,1088948.378
20030904,0,41.5502,41.565,40.762,41.0372,792940.518
20030905,0,40.8216,40.9628,40.4869,40.7695,518181.775
20030908,0,40.7323,41.3718,40.658,41.2082,486173.573
20030909,0,40.8959,40.9554,40.3307,40.5093,973288.702999999
20030910,0,40.3382,40.42,39.5723,39.6616,819838.087
20030911,0,39.7062,40.1152,39.4014,39.6764,846332.025
20030912,0,39.6987,40.591,39.3716,40.4572,803026.918
20030915,0,40.5613,40.6357,39.4162,39.8772,894478.807000001
20030916,0,39.7805,40.591,39.7062,40.5761,797916.668
20030917,0,40.5761,40.5761,39.6839,40.2489,1374331.007
20030918,0,40.2713,40.8438,40.2713,40.8289,726368.89
20030919,0,40.8438,40.9777,40.6357,40.7769,798185.431
20030922,0,40.6059,40.6059,39.9664,40.0705,968447.187
20030923,0,40.3382,40.5613,40.1448,40.5539,1015248.799
20030924,0,39.9293,40.078,39.2228,39.3567,1599195.575
20030925,0,39.3864,39.4832,38.866,39.0073,967236.924
20030926,0,39.0221,39.1114,38.6652,38.8362,738876.253
20030929,0,39.0741,39.5128,38.8214,39.4905,788098.708
20030930,0,39.498,39.498,38.353,38.8882,871750.235000001
20031001,0,38.8287,39.4014,38.6726,39.3641,1241053.859
20031002,0,39.5426,39.7805,39.26,39.6913,439640.799
20031003,0,39.6541,40.8884,39.6541,40.2044,702698.99
20031006,0,40.2044,40.6431,40.1152,40.5093,428074.885
20031007,0,40.5687,40.8959,40.3828,40.8959,665042.596
20031008,0,40.8736,41.0075,40.5389,40.7695,505001.929000001
20031009,0,41.1561,41.2528,40.4869,40.7323,655090.127
20031010,0,40.6357,40.9405,40.301,40.3754,563907.73
20031013,0,40.5241,41.1487,40.5241,41.1041,399697.888
20031014,0,41.0818,41.3197,40.6654,40.9182,592284.721
20031015,0,41.1933,41.4089,40.8736,41.1264,969408.987
20031016,0,40.9702,41.4461,40.9405,41.1933,854827.223000001
20031017,0,41.1859,41.4907,41.1338,41.3643,1145702.173
20031020,0,41.4015,41.632,41.1784,41.3643,902010.356000001
20031021,0,41.5279,41.6023,41.4089,41.4536,704581.742
20031022,0,41.4536,41.4536,40.2936,40.9034,957418.983999999
20031023,0,40.881,41.4907,40.7843,41.4238,697588.505
20031024,0,41.4238,41.5948,41.1189,41.5725,839473.13
20031027,0,41.5874,41.922,41.4238,41.6618,651459.207
20031028,0,41.6915,42.2566,41.6097,42.2566,728789.671000001
20031029,0,42.2789,42.4648,41.8105,42.4054,633437.717
20031030,0,42.4277,43.2604,42.4277,43.1861,1077382.298
20031031,0,43.2604,43.5356,42.8143,42.8515,946256.751
20031103,0,42.8663,43.3943,42.8663,43.3274,911199.911
20031104,0,43.2976,43.372,43.015,43.2009,786259.052
20031105,0,43.2232,43.2976,42.7548,43.1415,592015.453
20031106,0,43.1639,43.4037,42.8192,43.3212,872348.105000001
20031107,0,43.3586,43.8232,43.3512,43.6659,947090.025
20031110,0,43.6659,43.6808,43.044,43.0964,512918.107
20031111,0,43.1189,43.8306,43.1189,43.4561,682555.998
20031112,0,43.4561,43.7183,43.2163,43.7108,734341.656000001
20031113,0,43.6433,43.7333,43.4561,43.6209,695368.247
20031114,0,43.3437,44.0105,43.3437,43.531,692833.222000001
20031117,0,43.531,43.531,42.9316,43.014,787595.443
20031118,0,43.0815,43.1488,42.5795,42.6094,583389.338
20031119,0,42.467,42.9541,42.2573,42.9017,635708.885
20031120,0,42.8266,42.9915,42.1599,42.4595,403073.749
20031121,0,42.4296,42.9017,42.3472,42.6094,612752.478
20031124,0,42.7817,43.6284,42.7817,43.5909,756764.265000001
20031125,0,43.5459,43.9506,43.3886,43.516,850992.974
20031126,0,43.5384,44.018,43.4935,43.988,443514.663
20031128,0,43.9806,44.0929,43.8008,43.8082,232901.913
20031201,0,44.3777,45.9735,44.3626,45.7562,1608157.716
20031202,0,45.7038,45.7038,45.1044,45.1493,784659.451
20031203,0,45.2168,45.5764,44.6249,45.2468,1192404.228
20031204,0,45.2168,45.7038,45.1718,45.6962,682823.049
20031205,0,45.6064,45.8386,45.0519,45.1493,700974.759000001
20031208,0,45.1644,46.0409,45.1644,45.9286,778119.385
20031209,0,46.0559,46.8576,45.8986,46.8051,1254199.985
20031210,0,46.8127,46.9026,45.7413,45.8536,883425.358000001
20031211,0,45.7038,46.2133,45.5015,46.1908,633840.153000001
20031212,0,46.3556,47.0524,46.0559,46.9925,727534.799000001
20031215,0,47.2772,47.6069,46.8426,46.9925,826701.654
20031216,0,47.1124,47.2322,46.8127,46.9251,587660.239
20031217,0,47.0674,47.3522,46.7078,47.3371,666406.442
20031218,0,47.3522,47.9515,47.2022,47.8766,768642.935000001
20031219,0,47.8167,47.8616,47.2173,47.4046,590730.081
20031222,0,47.4046,47.8766,47.4046,47.7642,541346.844
20031223,0,47.5169,47.8466,47.3446,47.5544,581253.705
20031224,0,47.4271,47.6893,47.3596,47.4345,161896.852
20031226,0,47.4645,47.884,47.4645,47.884,214349.769
20031229,0,47.9291,48.2662,47.5769,48.2362,409079.832
20031230,0,48.2662,48.2662,47.2098,47.5994,741815.74
20031231,0,47.8766,48.0114,47.6069,47.9216,441379.085
20040102,0,47.9665,48.3111,47.5844,47.6743,336473.167
20040105,0,47.8391,48.3262,47.6443,48.3187,567906.932
20040106,0,48.0264,48.1763,47.412,47.9065,534006.048
20040107,0,47.914,47.914,46.9775,47.6443,557229.542
20040108,0,47.6668,48.1089,47.4645,48.0789,375445.924
20040109,0,47.914,47.914,46.9775,47.0898,546818.926000001
20040112,0,47.0075,47.5844,46.8276,47.5769,473144.6
20040113,0,47.5769,47.7642,47.1273,47.5544,606879.697000001
20040114,0,47.442,48.0938,47.4271,47.6893,450872.087999999
20040115,0,47.7642,48.2212,47.3971,47.5244,674321.808999999
20040116,0,47.502,47.7118,45.7487,46.026,1625241.557
20040120,0,46.0335,46.2957,45.3741,45.4715,958434.564000001
20040121,0,45.4491,45.5315,44.8422,45.2617,1126604.555
20040122,0,45.1419,45.1644,44.3102,44.4526,935878.614000001
20040123,0,44.6923,44.8047,44.033,44.0555,622228.433
20040126,0,43.6059,44.3551,43.5684,44.3102,736210.419
20040127,0,44.2952,44.4675,44.1453,44.2653,1111389.055
20040128,0,44.3177,44.6773,43.9056,43.9355,974985.064000001
20040129,0,43.9431,44.2053,43.2988,43.5384,909184.899
20040130,0,43.531,43.8681,43.3512,43.6059,898240.806
20040202,0,43.6584,44.003,43.4561,43.5535,777985.940000002
20040203,0,43.5085,43.6808,42.7443,42.8342,691364.977
20040204,0,42.8266,43.1264,42.4595,42.6468,824966.766
20040205,0,42.7068,43.5684,42.7068,43.2613,885560.813000001
20040206,0,43.4486,44.018,43.2688,43.9506,826968.656000001
20040209,0,43.9806,44.6099,43.958,44.3551,749023.380000001
20040210,0,44.3551,44.9095,44.2353,44.6548,633039.257
20040211,0,44.5799,45.5015,44.5124,45.4491,1074952.585
20040212,0,45.3961,45.8111,45.2828,45.3659,778705.551000002
20040213,0,45.4337,45.5772,44.4753,44.4979,594264.802
20040217,0,44.6414,44.9658,44.6036,44.8451,487469.294
20040218,0,44.7017,44.747,44.1508,44.3545,437914.183
20040219,0,44.5281,45.6451,44.5281,44.747,597047.266
20040220,0,44.9432,45.1168,44.0451,44.4451,503502.069
20040223,0,44.4451,44.6338,44.1508,44.3923,488926.859
20040224,0,44.4677,45.0036,44.1432,44.4451,565379.446
20040225,0,44.4375,45.23,44.3772,44.913,816733.167000002
20040226,0,44.913,44.913,44.347,44.4677,534506.954000001
20040227,0,44.664,45.1319,44.1131,44.3244,841775.700000002
20040301,0,44.4301,44.9206,44.3772,44.7847,649252.439000001
20040302,0,44.7545,44.8527,44.279,44.3168,464944.21
20040303,0,44.1885,44.2942,43.8489,44.1659,447984.203
20040304,0,44.0903,44.4149,43.8715,44.2716,464149.246
20040305,0,44.1508,44.3394,43.63,44.2112,1081469.128
20040308,0,44.3244,44.5658,43.9848,44.0375,492239.369
20040309,0,44.181,44.4149,43.3809,43.6224,965796.034000002
20040310,0,43.6979,43.8489,42.4301,42.5282,750217.841000001
20040311,0,42.1131,43.2602,41.9772,42.5357,1120689.324
20040312,0,42.7545,43.8111,42.6112,43.547,874105.800000002
20040315,0,43.5017,43.5017,42.2942,42.6942,826273.295000002
20040316,0,43.1696,43.464,42.581,42.8753,802025.499000001
20040317,0,43.2074,43.4263,43.1017,43.1696,637195.007000001
20040318,0,43.0338,43.0715,42.2414,42.664,839523.217000002
20040319,0,42.83,43.0263,42.3772,42.4602,566042.092
20040322,0,42.0753,42.0753,41.3659,41.8338,792750.383000001
20040323,0,42.1131,42.6414,41.7961,41.9168,610959.897000001
20040324,0,41.6753,42.0753,41.5394,41.5998,655214.966000001
20040325,0,41.8716,43.0639,41.7809,42.6715,641169.888000001
20040326,0,41.8866,42.6715,41.8866,42.4451,691520.114000002
20040329,0,42.7923,43.8866,42.7923,43.4942,641169.892000001
20040330,0,43.4338,43.8036,43.2526,43.7659,658395.009000001
20040331,0,43.8187,44.347,43.5168,44.1205,1001306.148
20040401,0,44.264,44.996,44.1508,44.6112,794472.940000002
20040402,0,45.3961,45.615,44.8602,45.3055,668862.565000001
20040405,0,44.8678,45.2526,44.8073,45.23,718285.115000001
20040406,0,45.1696,45.2678,44.8904,45.2074,483361.755
20040407,0,45.2224,45.2224,44.6036,44.8376,571474.793000001
20040408,0,45.547,45.6526,44.8451,45.0867,685822.565000001
20040412,0,45.1319,45.5546,45.1319,45.3281,349536.299
20040413,0,45.6451,45.6602,44.7697,44.7771,539541.974000001
20040414,0,44.6414,45.1545,44.2716,44.7168,660167.234000003
20040415,0,45.9244,46.981,45.6602,45.8564,1791841.28700001
20040416,0,45.8866,46.747,45.547,46.2338,991633.616000003
20040419,0,46.3998,46.8828,46.2262,46.7395,1125724.403
20040420,0,46.9054,47.147,46.03,46.03,801363.186000002
20040421,0,46.2187,46.3319,45.6451,46.2187,708215.133000001
20040422,0,46.0376,47.4565,46.0376,47.2828,717092.726000001
20040423,0,47.0941,47.0941,46.0753,46.8904,813288.271000001
20040426,0,46.8451,47.1998,46.6112,46.6791,524304.548000001
20040427,0,46.981,47.3508,46.664,46.9734,744652.878000001
20040428,0,46.7923,46.7923,45.4715,45.5696,1012701.445
20040429,0,45.6904,45.9998,44.5658,45.0489,1197804.409
20040430,0,45.2074,45.4413,44.7319,44.8149,770225.606000002
20040503,0,45.0565,45.1093,44.3092,44.6866,861120.616000001
20040504,0,44.6489,45.0338,44.279,44.6112,1281147.395
20040505,0,44.7168,44.9282,44.3092,44.7621,715237.779000001
20040506,0,44.7999,45.0812,44.6249,45.0052,851437.038
20040507,0,44.9824,45.0204,43.7656,43.8112,894567.575
20040510,0,43.4994,43.7124,42.7389,43.2484,913371.739
20040511,0,43.18,43.758,43.18,43.6059,542552.699
20040512,0,43.4234,43.7047,42.6857,43.6438,734931.493000001
20040513,0,43.6135,44.488,43.4841,44.199,1157691.207
20040514,0,44.0318,44.4652,43.6135,44.1915,727041.828
20040517,0,44.1915,44.1915,43.1724,43.3701,897460.54
20040518,0,43.621,43.7275,43.2028,43.4994,657611.813000001
20040519,0,43.9177,44.412,43.142,43.2865,963208.768
20040520,0,43.4234,43.7275,43.1116,43.3093,564512.592
20040521,0,43.8796,44.7314,43.7884,44.3131,998975.43
20040524,0,44.5033,44.9899,43.8949,44.1534,521250.344
20040525,0,44.1838,45.104,43.6515,45.028,647091.994000001
20040526,0,45.066,45.4082,44.7694,45.1724,409347.186000001
20040527,0,45.5907,46.1002,45.4158,45.5299,648406.977000001
20040528,0,45.6668,45.6896,45.0204,45.4767,586603.860000001
20040601,0,45.3246,45.6364,45.2181,45.4843,453529.947
20040602,0,45.8189,45.9405,45.2789,45.8493,383968.511
20040603,0,45.8189,45.8189,45.1953,45.2105,441695.281
20040604,0,45.5527,46.0546,45.5071,45.8265,568588.95
20040607,0,46.123,46.5413,46.009,46.4805,482590.517
20040608,0,46.4501,46.4652,46.1002,46.336,474832.381000001
20040609,0,46.4424,46.6326,46.1763,46.2219,503366.914000001
20040610,0,46.5794,46.6022,46.2219,46.3816,283373.926000001
20040614,0,46.3816,46.3816,45.5146,45.5679,547286.521000001
20040615,0,45.9786,46.2371,45.4767,45.6971,694825.125
20040616,0,45.7048,45.9329,45.2714,45.8417,749790.559
20040617,0,45.8493,45.9101,45.5603,45.8493,264044.092
20040618,0,45.8341,47.1345,45.8189,46.777,735589.030000001
20040621,0,47.1117,47.1117,46.5489,46.625,502972.437
20040622,0,46.5413,46.9292,46.1915,46.7695,471150.397000001
20040623,0,46.8455,47.4919,45.9026,47.355,464049.575000001
20040624,0,47.1725,47.3475,46.8683,46.9444,477988.152000001
20040625,0,46.8683,47.2257,46.6098,46.8607,831186.550000001
20040628,0,47.1497,47.1953,46.5794,46.7314,551099.945000001
20040629,0,46.8075,47.8266,46.7467,47.7809,723228.175000001
20040630,0,47.6364,47.7733,47.279,47.606,506785.813000001
20040701,0,47.53,47.7201,46.1002,46.5794,832107.102
20040702,0,46.3892,46.4501,45.7124,46.0546,406059.858000001
20040706,0,45.9482,46.374,45.7885,46.2827,796866.103
20040707,0,46.009,46.336,45.9101,46.0394,470624.330000001
20040708,0,45.8797,46.701,45.5907,45.9786,514544.092
20040709,0,46.0394,46.8531,46.0318,46.5717,634336.999
20040712,0,46.6098,46.876,46.1991,46.7467,385809.473000001
20040713,0,46.5945,46.9367,46.4652,46.7163,310330.619000001
20040714,0,46.3892,47.3398,46.2904,46.8683,397208.632
20040715,0,46.8531,47.1497,46.2523,46.2751,501210.432
20040716,0,46.6173,46.6173,45.4614,45.4614,1174785.829
20040719,0,45.4234,45.4995,44.8531,45.066,1227252.464
20040720,0,44.9443,45.0356,44.488,44.8987,961893.337000001
20040721,0,45.0584,45.2181,44.2066,44.2218,607380.353
20040722,0,44.1078,44.3664,43.4538,44.199,1085894.409
20040723,0,44.1762,44.4348,43.796,44.0469,581344.061000001
20040726,0,43.9557,44.1915,43.8416,44.0925,901931.38
20040727,0,44.1762,44.7542,43.9481,44.5869,557148.775
20040728,0,44.2979,44.8531,44.0697,44.7162,803835.249
20040729,0,44.7999,45.4234,44.7999,45.1953,529929.134000001
20040730,0,45.2865,45.2865,44.7162,44.8911,445245.611000001
20040802,0,44.7086,45.3321,44.4272,45.2486,458132.269000001
20040803,0,45.0052,45.0964,44.564,45.0432,469572.517
20040804,0,44.7542,45.7048,44.45,45.4614,570692.879000001
20040805,0,45.4311,45.4386,44.0697,44.1306,467994.474
20040806,0,43.6477,43.8164,43.2416,43.2876,877192.330000001
20040809,0,43.4026,43.9237,43.2799,43.6938,442836.659
20040810,0,43.8394,44.5828,43.7857,44.5828,618979.531
20040811,0,44.3912,44.7668,43.9083,44.7208,686696.703000001
20040812,0,44.5904,44.5981,43.6095,43.7934,660210.074
20040813,0,43.7244,43.893,43.0729,43.4102,710313.152
20040816,0,43.5711,44.9967,43.5711,44.9967,765243.7
20040817,0,45.058,45.5408,45.035,45.2572,572660.627
20040818,0,45.219,45.8014,45.0274,45.7938,408260.375
20040819,0,45.6788,45.7554,45.3109,45.6174,406825.044
20040820,0,45.6788,45.9394,45.6022,45.8091,582837.68
20040823,0,45.7938,45.8321,45.1499,45.1729,674953.811000001
20040824,0,45.3723,45.8091,45.3569,45.7172,397300.383
20040825,0,45.7631,46.3302,45.2649,46.1693,425352.728
20040826,0,45.9241,46.3532,45.9164,46.1923,364550.796
20040827,0,46.1999,46.2076,45.7554,45.9087,605409.985
20040830,0,45.7938,46.1463,45.6405,45.6942,347327.961
20040831,0,45.7938,46.0773,45.5408,45.8168,548261.371
20040901,0,45.7172,46.1003,45.4871,45.5639,673388.131
20040902,0,45.7172,46.6292,45.7172,46.6215,457710.896
20040903,0,46.4299,46.7978,46.4299,46.5678,562874.806000001
20040907,0,46.8284,46.9051,46.4069,46.6369,640899.741
20040908,0,46.4836,46.5985,46.085,46.1387,349024.092
20040909,0,46.292,46.5448,45.8934,45.9547,518382.297
20040910,0,45.8704,45.993,45.3569,45.97,536518.607
20040913,0,45.9853,46.269,45.9394,46.108,511467.150999999
20040914,0,45.9241,45.9853,45.2649,45.7095,668821.394000001
20040915,0,45.4489,45.855,45.4412,45.6022,529211.893
20040916,0,45.5715,46.1157,45.5715,45.8321,754414.054000001
20040917,0,45.8397,46.131,45.6022,45.6635,545782.598
20040920,0,45.5255,45.9853,45.4182,45.5332,590666.301
20040921,0,45.6942,46.039,45.3186,45.6251,551784.404
20040922,0,45.5562,45.5562,45.1806,45.242,666603.509
20040923,0,45.3109,45.3416,44.7361,45.012,623024.392
20040924,0,45.219,45.8321,45.0426,45.7095,485371.91
20040927,0,45.7247,45.8934,45.3416,45.5869,501290.037
20040928,0,45.5869,46.3993,45.5715,46.292,975049.338
20040929,0,46.108,46.9051,45.993,46.8974,542390.081
20040930,0,46.6521,47.4263,46.6521,46.9357,1223737.171
20041001,0,47.0584,47.5566,46.8054,47.5566,740844.575
20041004,0,47.6332,47.9474,47.5029,47.7251,752195.967
20041005,0,47.6332,47.7481,47.1887,47.4033,503769.04
20041006,0,47.5182,47.7635,47.4033,47.6715,559743.339
20041007,0,47.5182,47.6409,47.0277,47.0814,458885.123
20041008,0,47.0507,47.0507,46.5678,46.7518,428614.572
20041011,0,46.7518,47.0967,46.5678,46.7978,303879.388
20041012,0,46.7135,46.7135,46.0621,46.5372,626286.315
20041013,0,46.6828,46.6828,45.1347,45.1959,763286.218999999
20041014,0,45.6635,46.177,45.6635,45.9011,1147408.473
20041015,0,45.8704,46.6751,45.7401,46.3686,777116.924000001
20041018,0,46.4529,46.7442,46.0544,46.5066,314578.425
20041019,0,46.5985,46.8131,45.5255,45.6174,510162.243
20041020,0,45.6098,46.1387,45.5639,45.9853,834135.112
20041021,0,45.8091,46.5602,45.3723,46.085,948954.095
20041022,0,46.6751,47.0584,46.085,46.1157,777508.379
20041025,0,45.8934,46.7058,45.7018,46.6675,802168.204
20041026,0,46.7901,47.4186,46.6369,47.4186,1276841.148
20041027,0,47.5029,48.1773,47.0967,48.162,1224650.572
20041028,0,47.9397,47.9397,47.2806,47.7558,1019802.853
20041029,0,47.8631,48.9055,47.8554,48.8212,776203.614000001
20041101,0,48.3996,48.8671,48.1084,48.7445,1044332.26
20041102,0,48.7828,49.281,48.5069,48.7751,754935.882999999
20041103,0,49.2043,49.8175,48.7828,49.5492,1738858.032
20041104,0,49.511,50.6912,49.35,50.6222,1411883.892
20041105,0,50.6452,51.0361,50.0244,50.4383,1170764.002
20041108,0,50.145,50.7315,50.145,50.6621,732539.507
20041109,0,50.6389,51.4337,50.6003,51.1791,852145.865000002
20041110,0,51.2099,51.2949,50.8549,50.9785,757290.294000001
20041111,0,50.9398,51.6498,50.6852,51.5726,622263.774999999
20041112,0,51.5186,51.7038,51.2485,51.6344,770637.558000001
20041115,0,51.6961,51.7965,51.318,51.5572,598161.023
20041116,0,51.3565,51.8581,51.2022,51.2871,611378.472000001
20041117,0,51.318,52.4447,51.318,51.6035,867696.075000001
20041118,0,51.9739,52.1669,51.7347,51.9508,634444.394000001
20041119,0,52.1283,52.1283,51.1637,51.5881,531424.961
20041122,0,51.781,52.082,51.4029,51.9817,486200.205
20041123,0,52.0048,52.0433,51.5881,51.7347,648309.973000001
20041124,0,51.8273,52.1745,51.6653,52.0665,526241.642
20041126,0,51.9739,52.6299,51.9508,52.4215,276403.24
20041129,0,52.4215,52.5758,51.835,52.4369,750033.625
20041130,0,52.3597,52.5527,52.1205,52.19,462615.928
20041201,0,52.136,52.9385,52.1051,52.8305,564080.198
20041202,0,52.9,52.9,52.2594,52.5681,968512.606000001
20041203,0,52.2441,52.4678,51.8196,52.1745,944280.460000001
20041206,0,52.0511,52.3597,51.9739,52.2903,1108333.197
20041207,0,52.3057,52.3597,50.6389,50.8782,1500196.404
20041208,0,51.0247,51.1096,50.4382,50.9939,780356.101
20041209,0,50.8164,50.8935,49.9597,50.7392,1311780.899
20041210,0,51.6421,52.1205,50.1604,50.2376,1228069.855
20041213,0,50.7006,51.1637,50.3457,51.1482,892835.314000001
20041214,0,51.2022,51.9508,51.1945,51.8273,711417.566
20041215,0,51.7038,52.2209,51.7038,52.1205,566931.138
20041216,0,52.2826,52.3057,51.6189,51.7656,735260.986000001
20041217,0,51.7038,51.8119,51.1945,51.4183,1203449.126
20041220,0,51.4337,52.0433,51.4029,51.6266,438124.472
20041221,0,51.9739,52.4755,51.7347,52.4678,860698.573
20041222,0,52.3984,52.7302,52.2517,52.4755,888299.982000001
20041223,0,52.3521,52.5218,52.1977,52.4447,736297.540000001
20041227,0,52.6608,52.7611,52.2286,52.3135,526241.597
20041228,0,52.2286,52.6067,52.0974,52.5527,391603.63
20041229,0,52.6067,52.7457,52.3597,52.5218,382921.441
20041230,0,52.6684,52.6761,52.3597,52.5681,322794.485
20041231,0,52.8382,53.0852,52.4909,52.6299,416354.304
20050103,0,52.6993,52.7457,51.7424,51.8196,595310.114000001
20050104,0,51.8427,51.8427,50.5231,50.6774,751588.709
20050105,0,50.6929,51.2177,50.0524,50.0833,864197.434000001
20050106,0,50.0061,50.9089,49.8363,50.747,869639.835000001
20050107,0,50.7161,51.372,50.6929,50.9553,1080861.947
20050110,0,50.9476,51.3565,50.5077,50.8164,690943.245
20050111,0,50.8241,50.8241,49.9135,50.4073,859661.865
20050112,0,50.2761,50.9553,49.8981,50.9476,732669.194
20050113,0,51.0016,51.318,50.6389,50.8164,1121292.551
20050114,0,50.8395,51.0941,50.5925,51.0325,567967.81
20050118,0,50.9707,51.2177,50.3842,51.125,582481.261999999
20050119,0,51.2794,51.5881,51.0865,51.318,651808.68
20050120,0,51.3257,51.5804,50.9244,51.2871,1204614.818
20050121,0,51.6266,51.8659,51.4569,51.6189,1149282.474
20050124,0,51.8041,51.9971,51.3643,51.426,809512.739000001
20050125,0,51.6653,52.4987,51.6653,52.0742,1229754.609
20050126,0,52.4369,52.4833,52.1669,52.3906,719970.141000001
20050127,0,52.4369,52.5758,52.136,52.4447,929378.067000001
20050128,0,52.4909,52.599,51.8196,52.3597,674226.85
20050131,0,52.6684,53.0775,52.599,53.0543,963199.411000001
20050201,0,53.0697,53.4401,52.9617,53.3861,1019568.913
20050202,0,53.4401,53.6949,53.1161,53.6485,1325776.001
20050203,0,53.7334,53.7334,53.2395,53.5868,898148.534000001
20050204,0,53.5945,54.2659,53.5868,54.2659,973566.475000002
20050207,0,54.289,54.7597,54.2196,54.5745,841649.576000001
20050208,0,54.482,54.9063,54.289,54.8215,1131659.174
20050209,0,54.752,54.752,54.0344,54.3122,878451.742
20050210,0,54.3276,54.9836,54.3276,54.7366,727615.744000001
20050211,0,54.6748,55.5469,54.4434,55.0608,847999.062
20050214,0,55.0221,55.1687,54.7444,55.0993,571984.893000001
20050215,0,55.1842,55.6627,55.0067,55.5624,683168.245
20050216,0,55.1379,55.6627,54.8909,55.4775,957109.093
20050217,0,55.757,55.9123,55.4386,55.4619,634207.353999999
20050218,0,55.5241,55.7648,55.3144,55.5395,655197.566
20050222,0,55.0193,55.4231,54.6232,54.6232,895874.265000001
20050223,0,54.9416,55.5706,54.7475,55.5551,608452.882
20050224,0,55.5241,55.9123,55.2522,55.8657,816550.209999999
20050225,0,55.8657,56.751,55.7259,56.6423,1126249.024
20050228,0,56.65,56.65,55.5706,55.8192,1299320.045
20050301,0,56.1841,56.6423,56.1143,56.3084,838827.981999999
20050302,0,56.2152,56.3316,55.6406,55.8968,755383.143
20050303,0,55.99,56.4482,55.7881,56.1065,758731.054000001
20050304,0,56.6889,57.3567,56.6578,57.1393,777403.082
20050307,0,56.9762,57.2325,56.7588,57.0461,935794.086
20050308,0,57.0617,57.5198,56.9917,57.3101,795302.579
20050309,0,57.4189,58.0324,57.2014,57.2403,936309.076
20050310,0,57.1937,57.38,55.9667,56.8053,907463.930000001
20050311,0,57.0617,57.4732,56.5724,56.7355,769419.081
20050314,0,56.8986,57.3334,56.5336,56.9297,933991.111000001
20050315,0,57.1315,57.279,56.7355,56.7666,794014.999999999
20050316,0,56.6966,56.7044,55.2833,55.7648,1766637.429
20050317,0,55.7881,56.3627,55.3842,56.0599,1077315.633
20050318,0,56.0676,56.3316,55.5395,55.7415,1484754.606
20050321,0,55.757,55.8036,54.8718,55.4697,1164752.265
20050322,0,55.5241,56.3783,55.3144,55.4619,851834.024
20050323,0,55.3299,55.3998,54.6932,54.7552,1240857.495
20050324,0,54.7552,55.26,54.5921,54.9183,1029283.244
20050328,0,54.9183,55.3299,54.732,54.9028,714948.246000001
20050329,0,54.8485,55.4231,53.9709,53.9787,1157669.272
20050330,0,54.3592,55.2367,54.2738,55.1746,1081565.185
20050331,0,55.2989,55.7104,55.2134,55.4852,702585.848
20050401,0,55.7415,55.99,54.6388,54.6854,1507675.099
20050404,0,54.763,55.1746,54.5612,55.0892,1248068.838
20050405,0,54.996,55.2289,54.8018,55.1358,1174281.482
20050406,0,55.3688,55.6716,55.2755,55.4464,744050.698
20050407,0,55.5008,55.7881,55.2134,55.6561,560291.791
20050408,0,55.6794,55.7415,54.4679,54.4679,1229396.55
20050411,0,54.5068,54.5145,53.0779,53.738,1965463.208
20050412,0,53.5905,54.3359,52.9614,54.2583,1416374.998
20050413,0,54.3204,54.3204,52.7906,53.0157,986916.928
20050414,0,53.1245,53.1478,51.2375,51.6723,1630524.703
20050415,0,51.3151,51.6257,50.3055,50.391,1667353.166
20050418,0,50.4375,51.0821,49.9328,50.7948,1902750.549
20050419,0,51.0976,51.8897,51.0433,51.7577,1170933.679
20050420,0,51.8199,52.0916,51.0045,51.0433,1859869.392
20050421,0,51.8354,52.4722,51.1909,52.3402,1135778.401
20050422,0,53.5827,53.5827,51.9286,52.542,1328938.324
20050425,0,52.6508,53.6603,52.5731,53.109,1038555.017
20050426,0,52.8061,52.9226,51.6413,51.6413,1456037.231
20050427,0,51.6179,51.8043,50.9579,51.5015,1588158.041
20050428,0,51.649,52.0994,51.3229,51.4238,1528149.346
20050429,0,51.9363,52.7595,51.6413,52.4489,1094442.291
20050502,0,52.4722,53.1633,52.4411,52.8061,1046796.147
20050503,0,52.7673,53.3574,52.5887,52.9148,723962.126
20050504,0,52.9148,53.606,52.8993,53.5749,1366024.43
20050505,0,53.5749,54.0486,53.0468,53.5205,1185999.837
20050506,0,53.7161,54.1304,53.4424,53.8411,1108719.726
20050509,0,53.0827,53.6769,53.0514,53.5284,974302.639
20050510,0,53.4502,53.4502,52.4337,52.5589,1159494.234
20050511,0,52.6995,52.7856,51.7613,52.4572,1228301.532
20050512,0,53.0593,53.0593,50.8856,51.0811,1359521.714
20050513,0,50.8621,51.214,49.7909,50.4086,1668643.409
20050516,0,50.4164,50.8231,50.1663,50.6979,1270890.405
20050517,0,50.6588,51.5971,50.2679,51.4954,966756.736
20050518,0,51.7378,52.8638,51.6831,52.5666,798575.381000001
20050519,0,52.5823,52.5823,51.73,51.9646,661472.056000001
20050520,0,52.0897,52.0897,51.3235,51.6987,567085.63
20050523,0,51.7926,52.7777,51.7534,52.465,592408.774
20050524,0,52.1522,52.3946,51.7457,52.1679,852418.953
20050525,0,52.0819,52.0819,51.2453,51.644,745371.040000001
20050526,0,51.7926,51.9098,51.5423,51.7144,481907.741
20050527,0,51.7222,51.8239,51.4017,51.6128,560946.709
20050531,0,51.3704,51.4486,50.8465,51.1905,540355.614
20050601,0,50.9716,52.2461,50.9716,51.9959,615302.056
20050602,0,51.7613,51.9098,51.2374,51.73,668122.327000001
20050603,0,51.5893,52.0193,51.0576,51.2061,823770.612000002
20050606,0,51.1593,51.2765,51.0029,51.0576,660832.361000001
20050607,0,51.4094,51.8708,51.0185,51.1045,910227.394000001
20050608,0,51.2687,51.4251,50.8621,50.9403,680783.967
20050609,0,50.9794,50.9794,49.8534,50.6744,909587.957000001
20050610,0,50.87,51.1671,50.6588,50.9716,668378.282
20050613,0,50.9324,51.5033,50.7605,51.0732,723500.917000001
20050614,0,50.9012,51.2296,50.8778,51.0732,768264.303000001
20050615,0,51.5267,51.5267,51.0107,51.4173,595094.469000001
20050616,0,51.5267,52.8403,51.5267,52.3086,930178.892000002
20050617,0,52.9341,52.9341,52.0897,52.1444,899612.296000003
20050620,0,51.8395,51.8864,51.3391,51.4798,525136.171
20050621,0,51.4876,51.5267,50.909,51.1827,486511.838
20050622,0,51.4876,51.6284,50.9481,51.0654,548029.381
20050623,0,51.0732,51.2061,49.8222,50.1193,671831.517
20050624,0,50.0099,50.0489,49.0794,49.3374,840013.255000001
20050627,0,49.4235,49.9239,48.9621,49.4078,1268204.864
20050628,0,49.6971,50.5415,49.6111,50.1975,776705.155
20050629,0,50.1427,50.3069,49.8847,49.9316,705723.609
20050630,0,49.7518,50.0255,49.0168,49.0168,743068.914999999
20050701,0,49.4547,49.5641,49.0481,49.2671,630777.281000001
20050705,0,49.181,49.3218,48.7901,49.1732,699456.541
20050706,0,49.1029,49.3218,48.7432,48.7432,638962.4
20050707,0,47.9378,48.5243,47.7189,48.4774,1025971.933
20050708,0,48.837,49.572,48.751,49.3766,733348.663000001
20050711,0,49.6971,50.3617,49.6346,50.3461,1131357.419
20050712,0,50.2288,50.5259,49.5485,50.2914,825944.492000001
20050713,0,50.2992,50.4477,49.5641,49.8457,659809.326
20050714,0,50.0411,50.6823,49.9864,50.2288,567469.204
20050715,0,50.2757,50.6119,50.0177,50.2445,462467.689
20050718,0,50.0645,50.4477,49.8222,49.9395,396090.151
20050719,0,50.2992,50.7449,50.1427,50.5962,785274.227000001
20050720,0,50.5728,51.4564,50.2992,51.3625,664541.467000001
20050721,0,51.4017,51.4407,50.3538,50.3617,579747.207
20050722,0,50.432,51.3704,50.2366,51.3312,1081734.243
20050725,0,51.3547,51.472,50.7136,50.7214,848070.464000001
20050726,0,50.7057,50.7136,49.4625,50.2445,1344941.645
20050727,0,50.6275,51.1983,50.5728,51.1593,757137.419000001
20050728,0,51.511,51.9255,51.0654,51.7534,787832.09
20050729,0,51.4876,51.7534,50.8465,50.9012,668122.514000001
20050801,0,51.0967,51.2453,50.8387,50.8465,521683.063
20050802,0,51.0811,51.6987,51.0576,51.4641,631672.596000001
20050803,0,51.3312,52.0115,51.214,51.9333,537158.274
20050804,0,51.9177,51.9568,50.8387,50.8778,631160.836
20050805,0,50.8934,50.956,50.4008,50.5728,784890.627000001
20050808,0,50.7856,51.1401,50.5888,50.7148,463041.595000001
20050809,0,50.9195,51.0928,50.7699,50.9589,487291.97
20050810,0,51.085,51.3054,50.6517,50.8487,881899.28
20050811,0,50.9668,51.7151,50.9195,51.652,780834.925
20050812,0,51.5103,51.5891,50.5966,50.9275,705544.69
20050815,0,50.8723,51.1795,50.51,51.0219,376070.505
20050816,0,50.9195,51.0219,50.0216,50.0296,722812.054999999
20050817,0,50.0059,50.25,49.6278,50.0059,533126.180000001
20050818,0,49.7697,49.935,49.36,49.6673,686500
20050819,0,50.2264,50.8014,49.8798,50.447,1138622.155
20050822,0,50.4942,50.9116,50.0925,50.4075,665423.905
20050823,0,50.3525,50.4234,49.5018,50.0925,1413882.73
20050824,0,50.0925,50.2264,49.6515,49.8248,1361572.94
20050825,0,49.746,49.8169,49.2656,49.4388,799625.8
20050826,0,49.4388,49.4388,49.0135,49.2419,916052.604999999
20050829,0,49.045,49.5963,48.7142,49.5255,806989.755
20050830,0,49.3837,49.4231,48.8323,49.3443,861330.795
20050831,0,49.2813,49.6042,48.8638,49.6042,1133797.84
20050901,0,49.5491,49.8562,49.3995,49.5176,741729.75
20050902,0,49.6199,49.7223,49.0686,49.6042,649299.15
20050906,0,49.6594,49.9036,49.3207,49.4939,976868.935
20050907,0,49.5412,49.9193,49.5255,49.6199,1014069.565
20050908,0,49.6594,49.8169,49.2813,49.4703,1123259.58
20050909,0,49.557,49.557,49.0844,49.3522,828573.93
20050912,0,49.4152,49.7617,49.3443,49.6278,764329.635
20050913,0,49.6042,49.6594,48.9426,48.9426,694244.84
20050914,0,48.9584,49.0686,48.596,48.7536,1078948.785
20050915,0,48.7615,48.8638,48.2732,48.4307,773724.859999999
20050916,0,48.5803,48.9741,48.0919,48.9505,1326148.985
20050919,0,48.7536,48.8323,48.281,48.6512,1128592.285
20050920,0,48.8245,49.108,47.3438,47.588,1641657.615
20050921,0,47.1862,47.1942,46.2332,46.5483,1843405.015
20050922,0,46.4459,46.753,45.8551,46.5877,1239559.395
20050923,0,46.753,47.1704,46.2726,46.9421,1477872.64
20050926,0,47.1547,47.3438,46.2253,46.4538,1297328.405
20050927,0,46.3907,46.5483,45.8,46.0364,1392425.455
20050928,0,45.9024,46.1072,45.548,45.6819,1061681.775
20050929,0,45.6819,46.0914,45.2172,46.0914,1176584.95
20050930,0,45.9182,46.7058,45.7764,46.5483,1224069.835
20051003,0,46.6979,46.6979,45.7843,45.8158,1148779.685
20051004,0,45.8315,46.0284,45.1463,45.2329,692086.5
20051005,0,45.2014,45.2014,44.4768,44.4926,1460859.115
20051006,0,44.7052,45.0361,43.9885,44.1854,1145223.94
20051007,0,44.5398,45.3038,44.5398,45.1305,1365508.685
20051010,0,45.1226,45.1305,44.335,44.4689,967092.755
20051011,0,44.5005,44.6344,43.9728,44.0358,1107134.76
20051012,0,43.9885,44.4453,43.8231,44.083,783500.984999999
20051013,0,43.9648,44.5084,43.8783,44.2799,1092153.355
20051014,0,44.461,44.8786,44.2721,44.784,914910.215
20051017,0,44.784,44.973,44.6028,44.9258,617557.96
20051018,0,44.9022,45.0597,44.5713,44.6265,614129.915
20051019,0,44.5398,44.973,44.209,44.9258,810290.95
20051020,0,44.9336,46.3199,44.7761,45.5164,1649783.265
20051021,0,46.186,47.328,45.8866,45.9733,2070545.54
20051024,0,46.2253,46.7609,46.2096,46.5403,1297709.575
20051025,0,46.4695,46.7452,45.5874,45.6504,1433942.895
20051026,0,45.5401,46.3592,45.5401,45.8709,907038.194999999
20051027,0,45.8,46.0757,45.5952,45.5952,738428.67
20051028,0,45.863,46.7845,45.7291,46.7294,771058.755
20051031,0,46.8869,47.4777,46.8791,47.2492,1136718.055
20051101,0,47.1783,47.3989,46.8318,47.1942,758743.115
20051102,0,47.1626,47.8793,47.0051,47.714,1981670.12
20051103,0,47.8951,48.1707,47.2178,47.265,1160460.295
20051104,0,47.391,47.5013,46.7688,47.0602,748966.74
20051107,0,47.0208,47.517,46.9421,47.3122,1148398.75
20051108,0,47.2808,47.5745,46.8045,46.8998,932561.791000002
20051109,0,46.9554,47.4475,46.7489,46.9077,658953.046
20051110,0,46.9554,48.1778,46.5901,47.7889,879779.811
20051111,0,47.8207,48.1223,47.6301,47.7809,564600.959
20051114,0,47.5507,48.1461,47.4793,47.9477,905981.711000002
20051115,0,48.0508,48.3684,47.9873,48.1223,743731.530000001
20051116,0,48.2096,48.3764,47.4793,47.6301,629475.951000001
20051117,0,47.5507,47.9397,47.4317,47.9318,673565.761000001
20051118,0,48.4636,48.4716,47.9318,48.3286,666385.644000001
20051121,0,48.3525,49.059,48.3366,49.0352,832162.839
20051122,0,49.0273,49.3686,48.8288,49.2654,1065712.521
20051123,0,49.0749,49.3368,48.8685,48.9797,574804.578
20051125,0,48.8765,49.1543,48.4954,48.5827,407011.654
20051128,0,48.5668,48.5668,48.1461,48.1778,762626.959000001
20051129,0,48.6145,49.0193,48.3922,48.7573,1387315.894
20051130,0,48.8605,49.0511,48.2334,48.2334,905477.787000001
20051201,0,48.424,48.9559,48.3446,48.7653,867434.502000001
20051202,0,48.6383,48.6383,48.2652,48.3128,542304.195
20051205,0,48.0905,48.2414,47.6143,47.7651,818557.921000001
20051206,0,48.0429,48.289,47.8207,47.8683,571151.335
20051207,0,48.0191,48.0191,47.257,47.4475,615115.25
20051208,0,47.4872,47.5983,46.995,47.0982,651394.870000001
20051209,0,47.2332,47.257,46.2727,46.2806,1346753.402
20051212,0,46.3044,46.36,45.4471,45.8836,1985425.756
20051213,0,45.9234,46.1536,45.6058,45.8758,1622125.559
20051214,0,45.3439,45.6296,44.677,45.1375,1963506.403
20051215,0,45.0184,45.1454,44.5421,44.939,1244590.925
20051216,0,45.2327,45.2486,44.8278,44.9708,1442995.171
20051219,0,45.2248,45.7566,45.0105,45.3359,1647823.558
20051220,0,45.4153,45.7646,45.066,45.1295,956999.816000002
20051221,0,45.4233,45.6773,45.2009,45.3121,1086246.016
20051222,0,45.3201,46.1139,45.3121,45.836,1009403.712
20051223,0,46.1218,46.1774,45.8122,46.0742,607557.03
20051227,0,46.1853,46.4869,45.7884,45.8598,702412.988000001
20051228,0,45.852,46.0742,45.6217,45.836,491160.105
20051229,0,45.9314,46.1615,45.836,45.9552,610076.393
20051230,0,45.9472,46.0424,45.6852,45.9314,843878.119000001
20060103,0,46.2171,46.2409,45.1454,46.0424,1221664.583
20060104,0,46.0424,46.7013,45.9552,46.6537,1407974.515
20060105,0,46.7172,47.0426,46.614,46.8125,1440601.453
20060106,0,47.13,47.3761,46.9236,47.3681,1587735.224
20060109,0,47.4317,47.6619,47.3205,47.6301,1523239.254
20060110,0,47.6301,47.6301,47.2332,47.3761,1299766.473
20060111,0,47.1935,47.2729,46.7569,47.2014,1028551.259
20060112,0,47.2173,47.2173,46.1456,46.3997,1242449.261
20060113,0,47.0188,47.0982,46.3838,46.4631,1088639.391
20060117,0,46.0822,46.3997,46.0822,46.1536,1042534.008
20060118,0,46.1298,46.36,45.5741,45.7964,939363.744000001
20060119,0,46.5347,46.7966,46.098,46.1298,1088891.107
20060120,0,46.2171,46.2171,45.0899,45.2883,1577657.391
20060123,0,45.2407,46.5505,45.2407,46.225,1671001.926
20060124,0,46.5425,46.8363,46.4393,46.6299,1161324.313
20060125,0,46.8283,47.2094,46.6061,46.8204,895778.015000001
20060126,0,47.0586,47.3523,46.8363,47.1776,924247.241000001
20060127,0,47.3523,47.4872,46.9792,47.2412,1183117.448
20060130,0,47.138,47.1776,46.3997,46.995,967959.398000001
20060131,0,47.1538,47.2967,46.868,47.2173,1269658.938
20060201,0,46.876,47.0348,46.6378,46.8998,1115849.121
20060202,0,46.9554,46.9712,45.6614,46.09,2045135.206
20060203,0,46.0345,46.1536,45.5661,45.6455,890235.191000001
20060206,0,45.5106,45.7249,45.2089,45.5741,726473.309
20060207,0,45.59,45.7646,45.1057,45.2169,822715.149
20060208,0,45.066,45.5582,44.8755,45.4867,973627.941000001
20060209,0,45.5265,46.4711,45.5265,45.8598,1358216.614
20060210,0,45.6614,46.2091,45.3121,45.9552,707199.85
20060213,0,45.844,46.3044,45.5106,46.2488,1268903.28
20060214,0,46.233,47.9397,46.1456,47.7175,1770393.579
20060215,0,47.5092,47.9172,47.2611,47.7172,1211618.071
20060216,0,47.5171,48.1572,47.2851,48.1492,1236115.442
20060217,0,48.2453,48.2693,48.0132,48.0853,899526.807999999
20060221,0,48.1972,48.2133,47.5092,47.7572,809786.806
20060222,0,48.0053,48.3973,47.4292,47.7412,1674192.454
20060223,0,47.9092,47.9092,47.3732,47.5651,1239114.921
20060224,0,47.6292,47.8452,47.4212,47.5812,874404.782999999
20060227,0,47.6052,48.2693,47.6052,48.1893,1181621.161
20060228,0,48.2052,48.9574,48.0053,48.5573,2806945.311
20060301,0,48.9093,49.9334,48.7893,49.5894,1901292.387
20060302,0,49.2854,49.7654,49.0854,49.7574,1334854.757
20060303,0,49.4054,49.9894,49.2134,49.8294,1478213.925
20060306,0,49.9495,49.9654,49.5414,49.7814,1154249.07
20060307,0,49.5814,49.8374,49.3734,49.4454,1411846.333
20060308,0,49.4294,49.4294,48.5493,49.1094,1422470.185
20060309,0,49.1013,49.1814,48.5973,48.7573,751043.066999999
20060310,0,48.9253,49.2053,48.7253,49.0933,859656.269
20060313,0,49.2614,49.5974,49.1173,49.2614,637680.356999999
20060314,0,49.2854,49.8294,49.2854,49.7574,674301.753
20060315,0,50.0535,50.7736,50.0535,50.7415,1273611.452
20060316,0,50.7255,51.4616,50.7255,51.1656,1442217.711
20060317,0,51.1656,51.2056,50.5575,50.6535,1162998.707
20060320,0,50.6215,50.9655,50.3574,50.6695,630056.267
20060321,0,50.5495,50.8055,50.2695,50.5255,1352852.423
20060322,0,50.5335,50.7176,50.4135,50.5415,885528.386
20060323,0,50.5255,50.6775,50.2215,50.3814,574687.504
20060324,0,50.3014,50.6615,49.8134,50.5255,902651.568
20060327,0,50.2855,50.3335,49.8694,50.0214,772040.913
20060328,0,49.9894,50.3495,49.7654,50.1174,1116628.212
20060329,0,50.1575,50.7495,50.0214,50.6775,644429.803999999
20060330,0,50.4375,50.8295,50.1974,50.5815,725795.797999999
20060331,0,50.4615,50.8295,50.2774,50.7495,782914.715
20060403,0,50.6936,51.4055,50.6936,51.0375,1312731.84
20060404,0,50.9256,51.6377,50.6535,51.5576,1294108.882
20060405,0,51.4616,51.7977,51.0856,51.6616,1028262.87
20060406,0,51.6856,51.7177,51.1576,51.5336,655178.663
20060407,0,51.5256,51.7417,50.4935,50.5815,731920.249
20060410,0,50.6695,50.8216,50.3655,50.4135,532316.991
20060411,0,50.6535,50.9016,50.0694,50.1254,607683.817
20060412,0,50.2615,50.8055,50.1335,50.6615,665677.254
20060413,0,50.6455,51.0616,50.3735,50.7415,467199.123
20060417,0,50.6295,50.9655,50.5095,50.7976,569687.924
20060418,0,50.7895,50.9335,50.4854,50.5175,1762682.951
20060419,0,50.2215,50.8456,50.1815,50.5655,1631322.172
20060420,0,51.6056,52.7097,51.3656,52.6938,3197277.49100001
20060421,0,53.1098,53.7498,53.0298,53.2938,1968660.702
20060424,0,52.9818,53.4698,52.4617,53.3098,1225741.244
20060425,0,53.3578,53.8058,53.1098,53.7018,1795554.474
20060426,0,53.7899,54.1579,53.7098,53.9338,1574953.361
20060427,0,53.5339,54.4459,53.3418,53.8298,1218117.448
20060428,0,53.8379,54.0378,53.4778,53.6379,1310607.445
20060501,0,54.0459,54.3659,53.7659,53.8139,1199744.283
20060502,0,53.7578,54.4699,53.5898,54.3339,961395.473
20060503,0,54.3179,54.8059,54.2059,54.662,1122877.47
20060504,0,54.686,55.11,54.3899,54.43,1055759.882
20060505,0,54.5419,54.6539,54.3819,54.59,1246613.569
20060508,0,54.8314,55.1134,54.8314,54.9523,933786.811999998
20060509,0,54.7911,55.0812,54.63,55.0006,604528.931
20060510,0,55.0731,55.2826,54.7347,55.1456,1075021.634
20060511,0,55.2907,55.4035,54.9119,54.9684,803473.8
20060512,0,55.0731,55.0812,54.0901,54.1868,1031832.138
20060515,0,54.2191,54.2191,53.1473,53.6631,972136.230999999
20060516,0,54.0417,54.2029,53.3327,53.9934,826309.645999999
20060517,0,53.6389,53.8806,52.7767,53.0103,1211291.868
20060518,0,53.1715,53.4857,51.9951,52.5834,801363.85
20060519,0,53.1232,53.1232,52.3175,52.6961,1035307.939
20060522,0,52.6559,52.664,50.6657,51.8581,1414704.445
20060523,0,52.0918,52.5672,51.7776,51.8501,1135710.185
20060524,0,51.8662,52.1724,51.0363,51.8743,1367667.6
20060525,0,52.2771,52.535,51.8662,52.0274,807817.743
20060526,0,52.3577,52.4545,51.9468,52.3256,580824.587
20060530,0,51.971,52.0435,51.1974,51.5197,845918.502
20060531,0,51.7132,52.3256,51.3667,51.7856,560594.831
20060601,0,51.5922,52.3416,51.27,52.2933,640892.677000001
20060602,0,52.543,52.68,52.0193,52.527,601178.186
20060605,0,52.3416,52.3497,51.4553,51.7051,963200.417000001
20060606,0,52.7767,52.7767,51.4795,51.9468,1621964.457
20060607,0,49.9566,52.1805,49.586,51.5681,1209306.111
20060608,0,51.0685,51.8098,49.6021,51.6648,1997885.999
20060609,0,51.4875,51.6728,50.9315,51.3827,832391.114
20060612,0,51.4956,51.971,50.996,51.1088,923361.968999999
20060613,0,50.722,51.3102,50.2628,50.5125,1219234.685
20060614,0,50.3594,51.1008,50.303,51.0524,998322.986999998
20060615,0,51.2458,52.6236,51.1974,52.4303,1097361.279
20060616,0,52.2288,52.4866,51.8017,52.1965,935276.571999999
20060619,0,52.2208,52.2852,50.6012,50.8429,1432204.301
20060620,0,50.8429,51.1974,50.6254,50.722,869747.483
20060621,0,50.859,51.5197,50.7059,51.1732,1116473.332
20060622,0,51.3102,51.6003,50.859,51.5278,722803.804
20060623,0,51.3425,52.39,51.2619,51.7696,811044.561999998
20060626,0,51.9307,52.535,51.9065,52.5028,564194.134000001
20060627,0,52.4141,52.5511,51.1088,51.2942,904745.812999999
20060628,0,51.2378,51.3827,50.8269,51.3264,532546.656000001
20060629,0,51.8098,52.6478,51.6407,52.5994,921872.490000001
20060630,0,52.8573,53.3004,52.5753,53.2199,729381.629999999
20060703,0,53.4616,53.5825,53.2279,53.5825,323425.023
20060705,0,53.4455,53.4536,52.8331,53.1152,592739.082000001
20060706,0,52.9459,53.1957,52.3013,52.6236,679117.829
20060707,0,52.4786,52.9459,52.2369,52.4545,813774.845999999
20060710,0,52.7364,53.6389,52.5753,53.5744,815636.570999999
20060711,0,53.655,53.8322,53.4778,53.7033,1020786.393
20060712,0,53.6952,53.9128,52.8331,52.8814,572881.729000001
20060713,0,52.4545,52.68,51.0443,51.0766,1433444.906
20060714,0,51.0766,51.0766,50.2305,50.851,1084453.786
20060717,0,50.5609,51.3022,50.5448,51.0041,1019172.722
20060718,0,51.0202,51.3183,50.4964,51.1653,621904.275
20060719,0,51.6245,52.6961,51.4875,52.5672,1113688.85
20060720,0,52.406,52.8008,51.6245,51.7856,932614.893
20060721,0,51.8017,51.8017,49.8196,50.0371,1442131.606
20060724,0,50.4804,50.8429,50.0533,50.7784,1238843.708
20060725,0,50.7784,51.1168,50.1097,51.0524,1329442.561
20060726,0,50.9315,51.0363,50.303,50.4078,1176293.58
20060727,0,50.4481,50.4723,49.2153,49.3603,1633754.906
20060728,0,49.3926,50.0935,49.3926,49.9566,969157.490999998
20060731,0,49.7955,49.8761,49.3523,49.6343,815760.466999999
20060801,0,49.586,49.586,48.9172,49.2878,749859.353999999
20060802,0,49.586,50.3272,49.4571,50.0452,726154.518
20060803,0,49.449,50.7623,49.449,50.4481,717839.452
20060804,0,50.4723,51.0524,50.3192,50.5045,859198.267999999
20060807,0,50.4481,50.7543,50.0935,50.6899,530188.638
20060808,0,50.7797,51.1532,50.3251,50.4062,761987.536
20060809,0,50.4955,50.7066,50.1058,50.187,824921.928000001
20060810,0,50.1707,50.3818,49.7648,50.2844,815931.385000002
20060811,0,50.0164,50.4143,49.7241,49.8297,448054.142
20060814,0,49.0584,50.9096,49.0584,50.26,450024.522
20060815,0,50.7473,51.3968,50.5037,51.2994,601264.406
